Time,BicepsBrachiiR
20.6711,-1.23E-05
20.67162,-1.53E-05
20.67213,-1.56E-05
20.67265,-1.04E-05
20.67317,-6.38E-06
20.67369,-7.55E-06
20.67421,-6.88E-06
20.67473,1.68E-07
20.67525,1.06E-05
20.67577,2.20E-05
20.67629,3.04E-05
20.67681,3.69E-05
20.67733,4.05E-05
20.67785,4.01E-05
20.67837,3.91E-05
20.67888,4.11E-05
20.6794,4.62E-05
20.67992,5.14E-05
20.68044,5.27E-05
20.68096,4.88E-05
20.68148,4.38E-05
20.682,3.94E-05
20.68252,3.17E-05
20.68304,2.18E-05
20.68356,1.38E-05
20.68408,1.06E-05
20.6846,1.33E-05
20.68512,1.78E-05
20.68563,2.20E-05
20.68615,2.67E-05
20.68667,3.04E-05
20.68719,3.21E-05
20.68771,3.07E-05
20.68823,2.67E-05
20.68875,2.69E-05
20.68927,3.19E-05
20.68979,3.56E-05
20.69031,3.59E-05
20.69083,3.54E-05
20.69135,3.54E-05
20.69187,3.58E-05
20.69238,3.83E-05
20.6929,4.08E-05
20.69342,4.01E-05
20.69394,3.73E-05
20.69446,3.29E-05
20.69498,3.11E-05
20.6955,3.24E-05
20.69602,3.00E-05
20.69654,2.05E-05
20.69706,7.89E-06
20.69758,-1.17E-06
20.6981,-6.88E-06
20.69862,-1.38E-05
20.69913,-1.71E-05
20.69965,-9.74E-06
20.70017,6.55E-06
20.70069,2.37E-05
20.70121,3.39E-05
20.70173,3.51E-05
20.70225,3.00E-05
20.70277,2.57E-05
20.70329,2.45E-05
20.70381,2.27E-05
20.70433,2.20E-05
20.70485,2.64E-05
20.70537,3.37E-05
20.70588,3.91E-05
20.7064,4.05E-05
20.70692,3.88E-05
20.70744,3.51E-05
20.70796,2.80E-05
20.70848,2.32E-05
20.709,2.25E-05
20.70952,2.48E-05
20.71004,2.70E-05
20.71056,2.53E-05
20.71108,2.33E-05
20.7116,2.33E-05
20.71212,2.33E-05
20.71264,2.33E-05
20.71315,2.43E-05
20.71367,2.57E-05
20.71419,2.60E-05
20.71471,2.50E-05
20.71523,2.13E-05
20.71575,1.53E-05
20.71627,9.74E-06
20.71679,7.22E-06
20.71731,6.55E-06
20.71783,9.23E-06
20.71835,1.70E-05
20.71887,2.85E-05
20.71939,3.88E-05
20.7199,4.31E-05
20.72042,4.23E-05
20.72094,3.94E-05
20.72146,3.71E-05
20.72198,3.52E-05
20.7225,3.47E-05
20.72302,3.37E-05
20.72354,3.24E-05
20.72406,3.14E-05
20.72458,3.11E-05
20.7251,3.05E-05
20.72562,2.87E-05
20.72614,2.52E-05
20.72665,2.06E-05
20.72717,1.80E-05
20.72769,1.98E-05
20.72821,2.79E-05
20.72873,4.01E-05
20.72925,5.09E-05
20.72977,5.59E-05
20.73029,5.54E-05
20.73081,5.35E-05
20.73133,5.15E-05
20.73185,4.92E-05
20.73237,4.68E-05
20.73289,4.63E-05
20.7334,4.62E-05
20.73392,4.28E-05
20.73444,3.64E-05
20.73496,2.57E-05
20.73548,1.39E-05
20.736,4.87E-06
20.73652,-8.39E-07
20.73704,-3.19E-06
20.73756,-1.51E-06
20.73808,5.87E-06
20.7386,1.70E-05
20.73911,2.58E-05
20.73964,3.00E-05
20.74015,3.16E-05
20.74067,3.12E-05
20.74119,2.97E-05
20.74171,2.94E-05
20.74223,2.89E-05
20.74275,2.74E-05
20.74327,2.60E-05
20.74379,2.40E-05
20.74431,2.11E-05
20.74483,1.86E-05
20.74535,1.68E-05
20.74586,1.56E-05
20.74639,1.46E-05
20.7469,1.39E-05
20.74742,1.23E-05
20.74794,7.72E-06
20.74846,2.01E-06
20.74898,1.68E-07
20.7495,3.52E-06
20.75002,5.71E-06
20.75054,5.20E-06
20.75106,5.87E-06
20.75158,1.02E-05
20.7521,1.73E-05
20.75261,2.67E-05
20.75314,3.81E-05
20.75365,4.99E-05
20.75417,5.66E-05
20.75469,5.79E-05
20.75521,5.72E-05
20.75573,5.47E-05
20.75625,4.88E-05
20.75677,3.94E-05
20.75729,3.00E-05
20.75781,2.52E-05
20.75833,2.37E-05
20.75885,2.06E-05
20.75937,1.09E-05
20.75989,-6.38E-06
20.7604,-3.14E-05
20.76092,-6.40E-05
20.76144,-0.000103059
20.76196,-0.000146868
20.76248,-0.000176577
20.763,-0.000166171
20.76352,-0.000109102
20.76404,-1.96E-05
20.76456,7.50E-05
20.76508,0.000147875
20.7656,0.00018967
20.76612,0.000202594
20.76663,0.000194873
20.76715,0.00017641
20.76767,0.000154254
20.76819,0.00013109
20.76871,0.00010927
20.76923,8.66E-05
20.76975,6.56E-05
20.77027,4.75E-05
20.77079,3.11E-05
20.77131,1.91E-05
20.77183,1.49E-05
20.77235,1.36E-05
20.77287,5.20E-06
20.77338,-1.06E-05
20.7739,-2.87E-05
20.77442,-4.80E-05
20.77494,-6.48E-05
20.77546,-7.42E-05
20.77598,-7.49E-05
20.7765,-7.07E-05
20.77702,-6.78E-05
20.77754,-6.66E-05
20.77806,-6.83E-05
20.77858,-7.72E-05
20.7791,-9.58E-05
20.77962,-0.000120348
20.78013,-0.000137133
20.78065,-0.000142001
20.78117,-0.000141497
20.78169,-0.000146532
20.78221,-0.000163989
20.78273,-0.00020058
20.78325,-0.000259831
20.78377,-0.000335866
20.78429,-0.000413245
20.78481,-0.000469307
20.78533,-0.000479377
20.78585,-0.000421805
20.78637,-0.000287526
20.78688,-8.21E-05
20.78741,0.000178759
20.78792,0.000448661
20.78844,0.000673243
20.78896,0.000822629
20.78948,0.000893462
20.79,0.000891447
20.79052,0.000824979
20.79104,0.000709835
20.79156,0.000571862
20.79208,0.000434897
20.7926,0.00031136
20.79312,0.000203098
20.79363,0.000114641
20.79415,4.33E-05
20.79467,-1.46E-05
20.79519,-6.18E-05
20.79571,-9.97E-05
20.79623,-0.000126055
20.79675,-0.000138979
20.79727,-0.000142504
20.79779,-0.000142672
20.79831,-0.000142672
20.79883,-0.000139483
20.79935,-0.000130251
20.79987,-0.000114977
20.80038,-9.38E-05
20.8009,-6.81E-05
20.80142,-3.89E-05
20.80194,-8.56E-06
20.80246,2.00E-05
20.80298,4.48E-05
20.8035,6.63E-05
20.80402,8.26E-05
20.80454,9.35E-05
20.80506,0.000100374
20.80558,0.000103899
20.8061,0.000102724
20.80662,9.52E-05
20.80713,8.21E-05
20.80765,6.56E-05
20.80817,4.87E-05
20.80869,3.46E-05
20.80921,2.58E-05
20.80973,2.10E-05
20.81025,1.91E-05
20.81077,2.06E-05
20.81129,2.50E-05
20.81181,2.94E-05
20.81233,3.21E-05
20.81285,3.26E-05
20.81337,3.34E-05
20.81388,3.63E-05
20.8144,3.84E-05
20.81492,3.88E-05
20.81544,3.74E-05
20.81596,3.26E-05
20.81648,2.40E-05
20.817,1.38E-05
20.81752,3.69E-06
20.81804,-5.04E-06
20.81856,-1.38E-05
20.81908,-2.43E-05
20.8196,-3.51E-05
20.82012,-4.65E-05
20.82063,-5.82E-05
20.82115,-6.76E-05
20.82167,-7.05E-05
20.82219,-6.19E-05
20.82271,-4.06E-05
20.82323,-1.49E-05
20.82375,7.55E-06
20.82427,1.95E-05
20.82479,1.85E-05
20.82531,9.06E-06
20.82583,-3.69E-06
20.82635,-1.76E-05
20.82687,-2.94E-05
20.82738,-3.74E-05
20.8279,-4.18E-05
20.82842,-4.35E-05
20.82894,-4.52E-05
20.82946,-4.53E-05
20.82998,-4.10E-05
20.8305,-3.37E-05
20.83102,-3.26E-05
20.83154,-4.20E-05
20.83206,-5.32E-05
20.83258,-5.67E-05
20.8331,-4.99E-05
20.83362,-3.81E-05
20.83414,-2.82E-05
20.83465,-2.17E-05
20.83517,-1.73E-05
20.83569,-1.24E-05
20.83621,-1.01E-06
20.83673,1.59E-05
20.83725,3.58E-05
20.83777,5.35E-05
20.83829,6.43E-05
20.83881,5.94E-05
20.83933,3.88E-05
20.83985,1.29E-05
20.84037,-7.55E-06
20.84089,-1.88E-05
20.8414,-2.43E-05
20.84192,-2.70E-05
20.84244,-2.99E-05
20.84296,-3.37E-05
20.84348,-3.47E-05
20.844,-3.21E-05
20.84452,-2.84E-05
20.84504,-2.43E-05
20.84556,-2.00E-05
20.84608,-1.63E-05
20.8466,-1.36E-05
20.84712,-1.12E-05
20.84764,-7.72E-06
20.84815,-2.01E-06
20.84867,6.21E-06
20.84919,1.66E-05
20.84971,2.55E-05
20.85023,2.75E-05
20.85075,2.43E-05
20.85127,2.43E-05
20.85179,3.36E-05
20.85231,4.88E-05
20.85283,6.23E-05
20.85335,6.93E-05
20.85387,7.13E-05
20.85439,7.22E-05
20.8549,7.03E-05
20.85542,6.34E-05
20.85594,5.86E-05
20.85646,6.85E-05
20.85698,9.32E-05
20.8575,0.000119677
20.85802,0.000140154
20.85854,0.000151568
20.85906,0.000150225
20.85958,0.000134447
20.8601,0.000109606
20.86061,8.48E-05
20.86114,7.10E-05
20.86165,7.08E-05
20.86217,7.34E-05
20.86269,7.30E-05
20.86321,7.02E-05
20.86373,6.46E-05
20.86425,5.91E-05
20.86477,5.56E-05
20.86529,5.30E-05
20.86581,5.00E-05
20.86633,4.62E-05
20.86685,4.28E-05
20.86736,4.05E-05
20.86789,3.91E-05
20.8684,3.74E-05
20.86892,3.61E-05
20.86944,3.51E-05
20.86996,3.29E-05
20.87048,2.97E-05
20.871,2.70E-05
20.87152,2.52E-05
20.87204,2.47E-05
20.87256,2.60E-05
20.87308,2.74E-05
20.8736,2.70E-05
20.87411,2.47E-05
20.87464,2.27E-05
20.87515,2.13E-05
20.87567,2.06E-05
20.87619,2.20E-05
20.87671,2.43E-05
20.87723,2.40E-05
20.87775,2.13E-05
20.87827,1.83E-05
20.87879,1.53E-05
20.87931,1.23E-05
20.87983,8.90E-06
20.88035,5.37E-06
20.88087,2.52E-06
20.88139,-3.36E-07
20.8819,-1.51E-06
20.88242,1.51E-06
20.88294,6.71E-06
20.88346,9.06E-06
20.88398,8.39E-06
20.8845,8.22E-06
20.88502,1.02E-05
20.88554,1.39E-05
20.88606,1.81E-05
20.88658,2.15E-05
20.8871,2.48E-05
20.88762,2.74E-05
20.88813,2.97E-05
20.88865,3.39E-05
20.88917,3.81E-05
20.88969,4.01E-05
20.89021,4.01E-05
20.89073,3.91E-05
20.89125,3.83E-05
20.89177,3.66E-05
20.89229,3.31E-05
20.89281,2.60E-05
20.89333,1.78E-05
20.89385,1.31E-05
20.89437,1.53E-05
20.89488,2.30E-05
20.8954,3.00E-05
20.89592,3.37E-05
20.89644,3.34E-05
20.89696,2.95E-05
20.89748,2.47E-05
20.898,2.08E-05
20.89852,1.81E-05
20.89904,1.66E-05
20.89956,1.58E-05
20.90008,1.49E-05
20.9006,1.56E-05
20.90112,1.56E-05
20.90163,1.56E-05
20.90215,1.66E-05
20.90267,1.78E-05
20.90319,1.71E-05
20.90371,1.73E-05
20.90423,1.95E-05
20.90475,2.37E-05
20.90527,2.90E-05
20.90579,3.24E-05
20.90631,3.41E-05
20.90683,3.58E-05
20.90735,3.73E-05
20.90787,4.01E-05
20.90838,4.36E-05
20.90891,4.52E-05
20.90942,4.41E-05
20.90994,4.36E-05
20.91046,4.35E-05
20.91098,4.41E-05
20.9115,4.52E-05
20.91202,4.41E-05
20.91254,4.38E-05
20.91306,4.46E-05
20.91358,4.45E-05
20.9141,4.35E-05
20.91462,4.21E-05
20.91513,4.15E-05
20.91565,4.06E-05
20.91617,4.08E-05
20.91669,4.25E-05
20.91721,4.52E-05
20.91773,4.82E-05
20.91825,4.88E-05
20.91877,4.60E-05
20.91929,3.84E-05
20.91981,2.89E-05
20.92033,2.32E-05
20.92085,2.20E-05
20.92137,2.25E-05
20.92188,2.11E-05
20.9224,1.85E-05
20.92292,1.63E-05
20.92344,1.56E-05
20.92396,1.54E-05
20.92448,1.54E-05
20.925,1.39E-05
20.92552,1.06E-05
20.92604,6.55E-06
20.92656,3.19E-06
20.92708,5.04E-07
20.9276,-1.85E-06
20.92812,-4.87E-06
20.92863,-6.38E-06
20.92915,-7.72E-06
20.92967,-8.90E-06
20.93019,-8.56E-06
20.93071,-7.39E-06
20.93123,-6.21E-06
20.93175,-4.70E-06
20.93227,-1.01E-06
20.93279,2.52E-06
20.93331,3.19E-06
20.93383,2.52E-06
20.93435,2.35E-06
20.93487,4.36E-06
20.93538,8.73E-06
20.9359,1.06E-05
20.93642,8.56E-06
20.93694,2.35E-06
20.93746,-5.71E-06
20.93798,-1.33E-05
20.9385,-1.96E-05
20.93902,-2.40E-05
20.93954,-2.48E-05
20.94006,-1.96E-05
20.94058,-7.72E-06
20.9411,7.39E-06
20.94162,2.03E-05
20.94213,3.12E-05
20.94265,3.83E-05
20.94317,4.11E-05
20.94369,4.26E-05
20.94421,4.48E-05
20.94473,4.55E-05
20.94525,4.53E-05
20.94577,4.48E-05
20.94629,4.26E-05
20.94681,3.93E-05
20.94733,3.78E-05
20.94785,3.78E-05
20.94837,3.61E-05
20.94888,3.21E-05
20.9494,2.65E-05
20.94992,2.11E-05
20.95044,1.73E-05
20.95096,1.39E-05
20.95148,1.24E-05
20.952,1.36E-05
20.95252,1.39E-05
20.95304,1.46E-05
20.95356,1.63E-05
20.95408,1.80E-05
20.9546,1.85E-05
20.95512,1.56E-05
20.95564,1.29E-05
20.95615,1.14E-05
20.95667,9.40E-06
20.95719,7.55E-06
20.95771,8.56E-06
20.95823,9.57E-06
20.95875,7.55E-06
20.95927,5.87E-06
20.95979,7.89E-06
20.96031,1.21E-05
20.96083,1.49E-05
20.96135,1.28E-05
20.96187,7.05E-06
20.96239,5.20E-06
20.9629,8.22E-06
20.96342,1.43E-05
20.96394,2.13E-05
20.96446,2.67E-05
20.96498,2.87E-05
20.9655,2.90E-05
20.96602,3.04E-05
20.96654,3.21E-05
20.96706,2.92E-05
20.96758,2.20E-05
20.9681,1.70E-05
20.96862,1.76E-05
20.96914,2.72E-05
20.96965,4.25E-05
20.97017,5.35E-05
20.97069,5.52E-05
20.97121,4.88E-05
20.97173,3.99E-05
20.97225,3.24E-05
20.97277,3.11E-05
20.97329,3.66E-05
20.97381,4.26E-05
20.97433,4.52E-05
20.97485,4.41E-05
20.97536,4.35E-05
20.97589,4.36E-05
20.9764,4.28E-05
20.97692,4.08E-05
20.97744,3.91E-05
20.97796,3.68E-05
20.97848,3.29E-05
20.979,2.90E-05
20.97952,2.40E-05
20.98004,1.83E-05
20.98056,1.31E-05
20.98108,8.90E-06
20.9816,5.20E-06
20.98211,2.85E-06
20.98264,4.87E-06
20.98315,8.73E-06
20.98367,1.06E-05
20.98419,1.04E-05
20.98471,1.16E-05
20.98523,1.17E-05
20.98575,1.06E-05
20.98627,1.26E-05
20.98679,1.80E-05
20.98731,2.38E-05
20.98783,2.67E-05
20.98835,2.33E-05
20.98886,1.64E-05
20.98939,9.57E-06
20.9899,3.02E-06
20.99042,-1.51E-06
20.99094,-2.85E-06
20.99146,-3.52E-06
20.99198,-5.54E-06
20.9925,-6.21E-06
20.99302,-3.86E-06
20.99354,-3.36E-07
20.99406,1.51E-06
20.99458,0
20.9951,-3.19E-06
20.99562,-4.20E-06
20.99614,4.87E-06
20.99665,2.27E-05
20.99717,4.01E-05
20.99769,5.02E-05
20.99821,5.22E-05
20.99873,4.58E-05
20.99925,3.61E-05
20.99977,3.21E-05
21.00029,3.29E-05
21.00081,3.04E-05
21.00133,2.38E-05
21.00185,1.59E-05
21.00237,9.90E-06
21.00288,9.90E-06
21.0034,1.90E-05
21.00392,3.27E-05
21.00444,3.89E-05
21.00496,3.31E-05
21.00548,2.48E-05
21.006,2.53E-05
21.00652,3.17E-05
21.00704,3.47E-05
21.00756,3.00E-05
21.00808,2.17E-05
21.0086,1.88E-05
21.00912,2.47E-05
21.00963,3.37E-05
21.01015,4.10E-05
21.01067,4.20E-05
21.01119,3.47E-05
21.01171,2.47E-05
21.01223,1.46E-05
21.01275,1.06E-05
21.01327,1.56E-05
21.01379,2.13E-05
21.01431,2.43E-05
21.01483,2.74E-05
21.01535,3.19E-05
21.01587,3.51E-05
21.01638,3.41E-05
21.0169,2.90E-05
21.01742,1.86E-05
21.01794,2.69E-06
21.01846,-7.89E-06
21.01898,-6.21E-06
21.0195,1.85E-06
21.02002,1.23E-05
21.02054,2.40E-05
21.02106,3.71E-05
21.02158,4.73E-05
21.0221,4.95E-05
21.02262,4.53E-05
21.02313,4.52E-05
21.02365,5.39E-05
21.02417,6.24E-05
21.02469,5.94E-05
21.02521,4.21E-05
21.02573,1.83E-05
21.02625,-5.04E-06
21.02677,-1.93E-05
21.02729,-1.91E-05
21.02781,-7.72E-06
21.02833,4.87E-06
21.02885,1.14E-05
21.02937,1.26E-05
21.02988,8.56E-06
21.03041,3.69E-06
21.03092,2.85E-06
21.03144,9.74E-06
21.03196,2.11E-05
21.03248,2.79E-05
21.033,2.75E-05
21.03352,2.03E-05
21.03404,1.23E-05
21.03456,6.88E-06
21.03508,1.85E-06
21.0356,-4.03E-06
21.03612,-7.55E-06
21.03663,-5.20E-06
21.03715,6.71E-07
21.03767,8.56E-06
21.03819,2.27E-05
21.03871,4.06E-05
21.03923,5.24E-05
21.03975,5.74E-05
21.04027,5.93E-05
21.04079,5.81E-05
21.04131,5.52E-05
21.04183,5.35E-05
21.04235,5.34E-05
21.04287,5.05E-05
21.04338,4.15E-05
21.0439,2.62E-05
21.04442,9.74E-06
21.04494,-6.71E-07
21.04546,-4.87E-06
21.04598,-3.86E-06
21.0465,2.18E-06
21.04702,5.54E-06
21.04754,9.23E-06
21.04806,2.00E-05
21.04858,3.21E-05
21.0491,3.94E-05
21.04962,4.45E-05
21.05013,4.85E-05
21.05065,4.90E-05
21.05117,4.18E-05
21.05169,3.27E-05
21.05221,3.21E-05
21.05273,3.81E-05
21.05325,4.68E-05
21.05377,5.79E-05
21.05429,6.97E-05
21.05481,7.75E-05
21.05533,7.69E-05
21.05585,7.07E-05
21.05637,5.86E-05
21.05688,4.20E-05
21.0574,2.52E-05
21.05792,1.04E-05
21.05844,6.71E-07
21.05896,-1.85E-06
21.05948,2.52E-06
21.06,1.19E-05
21.06052,1.98E-05
21.06104,2.32E-05
21.06156,2.33E-05
21.06208,2.48E-05
21.0626,3.24E-05
21.06312,4.18E-05
21.06363,4.62E-05
21.06415,4.38E-05
21.06467,3.66E-05
21.06519,3.02E-05
21.06571,3.14E-05
21.06623,3.74E-05
21.06675,4.50E-05
21.06727,4.97E-05
21.06779,4.97E-05
21.06831,4.20E-05
21.06883,2.74E-05
21.06935,1.43E-05
21.06987,9.40E-06
21.07038,1.26E-05
21.0709,1.91E-05
21.07142,2.32E-05
21.07194,2.20E-05
21.07246,1.98E-05
21.07298,2.17E-05
21.0735,2.45E-05
21.07402,2.13E-05
21.07454,1.58E-05
21.07506,1.43E-05
21.07558,1.49E-05
21.0761,1.43E-05
21.07662,1.33E-05
21.07714,1.76E-05
21.07765,3.16E-05
21.07817,5.02E-05
21.07869,6.03E-05
21.07921,5.29E-05
21.07973,2.90E-05
21.08025,3.36E-07
21.08077,-1.86E-05
21.08129,-2.17E-05
21.08181,-1.28E-05
21.08233,-5.20E-06
21.08285,-4.20E-06
21.08337,-5.20E-06
21.08389,-4.53E-06
21.0844,-3.36E-07
21.08492,1.06E-05
21.08544,2.77E-05
21.08596,4.41E-05
21.08648,5.49E-05
21.087,5.82E-05
21.08752,5.59E-05
21.08804,5.09E-05
21.08856,4.82E-05
21.08908,4.72E-05
21.0896,4.48E-05
21.09012,4.13E-05
21.09064,3.74E-05
21.09115,3.41E-05
21.09167,3.02E-05
21.09219,2.77E-05
21.09271,2.94E-05
21.09323,3.41E-05
21.09375,3.91E-05
21.09427,4.11E-05
21.09479,4.01E-05
21.09531,3.61E-05
21.09583,3.14E-05
21.09635,2.79E-05
21.09686,2.52E-05
21.09739,1.70E-05
21.0979,1.68E-06
21.09842,-1.46E-05
21.09894,-3.00E-05
21.09946,-3.93E-05
21.09998,-3.84E-05
21.1005,-3.19E-05
21.10102,-3.04E-05
21.10154,-3.66E-05
21.10206,-4.11E-05
21.10258,-3.81E-05
21.1031,-3.31E-05
21.10361,-3.04E-05
21.10414,-2.87E-05
21.10465,-2.55E-05
21.10517,-1.98E-05
21.10569,-1.21E-05
21.10621,-5.37E-06
21.10673,-5.04E-07
21.10725,5.54E-06
21.10777,1.33E-05
21.10829,2.03E-05
21.10881,2.37E-05
21.10933,2.47E-05
21.10985,2.48E-05
21.11036,2.48E-05
21.11089,2.23E-05
21.1114,1.51E-05
21.11192,6.55E-06
21.11244,-1.68E-06
21.11296,-6.88E-06
21.11348,-2.85E-06
21.114,1.33E-05
21.11452,2.70E-05
21.11504,3.16E-05
21.11556,3.17E-05
21.11608,3.21E-05
21.1166,3.52E-05
21.11712,3.84E-05
21.11764,3.94E-05
21.11815,4.21E-05
21.11867,5.02E-05
21.11919,6.11E-05
21.11971,6.68E-05
21.12023,6.43E-05
21.12075,5.84E-05
21.12127,5.29E-05
21.12179,4.85E-05
21.12231,4.21E-05
21.12283,3.21E-05
21.12335,2.17E-05
21.12387,1.38E-05
21.12438,1.09E-05
21.1249,9.40E-06
21.12542,6.21E-06
21.12594,4.87E-06
21.12646,9.90E-06
21.12698,2.03E-05
21.1275,3.04E-05
21.12802,3.59E-05
21.12854,3.96E-05
21.12906,4.25E-05
21.12958,4.26E-05
21.1301,4.08E-05
21.13062,3.74E-05
21.13113,3.47E-05
21.13165,3.52E-05
21.13217,3.71E-05
21.13269,3.51E-05
21.13321,2.89E-05
21.13373,2.32E-05
21.13425,2.30E-05
21.13477,2.62E-05
21.13529,2.84E-05
21.13581,3.07E-05
21.13633,3.54E-05
21.13685,3.84E-05
21.13737,3.74E-05
21.13788,3.66E-05
21.1384,4.10E-05
21.13892,4.92E-05
21.13944,5.59E-05
21.13996,5.89E-05
21.14048,6.43E-05
21.141,7.37E-05
21.14152,7.91E-05
21.14204,7.97E-05
21.14256,7.99E-05
21.14308,7.92E-05
21.1436,7.64E-05
21.14412,7.13E-05
21.14463,6.61E-05
21.14515,6.40E-05
21.14567,6.56E-05
21.14619,6.90E-05
21.14671,7.22E-05
21.14723,7.57E-05
21.14775,7.91E-05
21.14827,8.39E-05
21.14879,8.58E-05
21.14931,8.29E-05
21.14983,7.60E-05
21.15035,6.81E-05
21.15087,6.03E-05
21.15138,5.32E-05
21.1519,4.58E-05
21.15242,3.74E-05
21.15294,2.95E-05
21.15346,2.20E-05
21.15398,1.49E-05
21.1545,9.06E-06
21.15502,3.02E-06
21.15554,-1.85E-06
21.15606,-6.55E-06
21.15658,-1.06E-05
21.1571,-1.56E-05
21.15762,-2.27E-05
21.15813,-3.11E-05
21.15865,-3.96E-05
21.15917,-4.88E-05
21.15969,-5.66E-05
21.16021,-5.93E-05
21.16073,-5.66E-05
21.16125,-4.88E-05
21.16177,-3.84E-05
21.16229,-2.99E-05
21.16281,-2.32E-05
21.16333,-1.78E-05
21.16385,-1.48E-05
21.16437,-1.14E-05
21.16488,-1.85E-06
21.1654,1.29E-05
21.16592,2.87E-05
21.16644,4.23E-05
21.16696,5.09E-05
21.16748,5.32E-05
21.168,5.22E-05
21.16852,4.87E-05
21.16904,4.45E-05
21.16956,3.98E-05
21.17008,3.46E-05
21.1706,2.95E-05
21.17112,2.40E-05
21.17163,2.06E-05
21.17215,2.03E-05
21.17267,2.13E-05
21.17319,2.35E-05
21.17371,2.70E-05
21.17423,3.12E-05
21.17475,3.61E-05
21.17527,4.01E-05
21.17579,3.98E-05
21.17631,3.37E-05
21.17683,2.35E-05
21.17735,9.23E-06
21.17787,-6.88E-06
21.17838,-2.10E-05
21.1789,-3.22E-05
21.17942,-4.25E-05
21.17994,-5.27E-05
21.18046,-6.33E-05
21.18098,-7.49E-05
21.1815,-8.68E-05
21.18202,-9.79E-05
21.18254,-0.00010457
21.18306,-0.000108095
21.18358,-0.000110277
21.1841,-0.000111116
21.18462,-0.000111452
21.18513,-0.000109606
21.18565,-0.000106416
21.18617,-0.000103395
21.18669,-0.00010071
21.18721,-9.97E-05
21.18773,-9.92E-05
21.18825,-9.72E-05
21.18877,-9.33E-05
21.18929,-9.10E-05
21.18981,-9.28E-05
21.19033,-9.95E-05
21.19085,-0.000112123
21.19137,-0.000122698
21.19188,-0.000121523
21.1924,-0.000103731
21.19292,-6.87E-05
21.19344,-1.80E-05
21.19396,4.28E-05
21.19448,0.000106249
21.195,0.000162142
21.19552,0.00020058
21.19604,0.000221225
21.19656,0.000226429
21.19708,0.000218036
21.1976,0.000197726
21.19812,0.000166339
21.19864,0.00012874
21.19915,9.15E-05
21.19967,5.89E-05
21.20019,3.27E-05
21.20071,1.93E-05
21.20123,3.04E-05
21.20175,7.45E-05
21.20227,0.000147372
21.20279,0.000227436
21.20331,0.000292226
21.20383,0.000331502
21.20435,0.000340566
21.20487,0.000321935
21.20539,0.000283162
21.2059,0.000232471
21.20642,0.000174899
21.20694,0.000113634
21.20746,6.01E-05
21.20798,2.40E-05
21.2085,5.71E-06
21.20902,-2.18E-06
21.20954,-4.20E-06
21.21006,-6.71E-07
21.21058,5.87E-06
21.2111,1.19E-05
21.21162,1.39E-05
21.21214,1.11E-05
21.21265,2.35E-06
21.21317,-4.36E-06
21.21369,1.11E-05
21.21421,6.01E-05
21.21473,0.000122698
21.21525,0.000169696
21.21577,0.000182284
21.21629,0.000160632
21.21681,0.000123873
21.21733,9.05E-05
21.21785,6.56E-05
21.21836,4.65E-05
21.21889,2.80E-05
21.2194,8.56E-06
21.21992,-4.87E-06
21.22044,-3.36E-06
21.22096,1.59E-05
21.22148,4.95E-05
21.222,8.56E-05
21.22252,0.000115312
21.22304,0.000137804
21.22356,0.000150561
21.22408,0.000150057
21.2246,0.00013814
21.22511,0.000117998
21.22564,9.45E-05
21.22615,7.10E-05
21.22667,4.82E-05
21.22719,2.33E-05
21.22771,-4.87E-06
21.22823,-3.42E-05
21.22875,-6.31E-05
21.22927,-9.08E-05
21.22979,-0.000114641
21.23031,-0.000130755
21.23083,-0.000139818
21.23135,-0.000146197
21.23186,-0.000151064
21.23239,-0.000150393
21.2329,-0.000142672
21.23342,-0.000129244
21.23394,-0.000111452
21.23446,-9.42E-05
21.23498,-8.02E-05
21.2355,-7.17E-05
21.23602,-6.93E-05
21.23654,-6.93E-05
21.23706,-6.50E-05
21.23758,-4.97E-05
21.2381,-2.05E-05
21.23862,2.00E-05
21.23914,6.16E-05
21.23965,9.55E-05
21.24017,0.00011783
21.24069,0.000123369
21.24121,0.000107256
21.24173,7.34E-05
21.24225,2.97E-05
21.24277,-1.98E-05
21.24329,-6.85E-05
21.24381,-9.55E-05
21.24433,-7.54E-05
21.24485,-4.87E-06
21.24537,8.76E-05
21.24588,0.000159625
21.2464,0.000185641
21.24692,0.000165835
21.24744,0.000117998
21.24796,6.19E-05
21.24848,1.11E-05
21.249,-2.85E-05
21.24952,-6.16E-05
21.25004,-9.05E-05
21.25056,-0.000114305
21.25108,-0.000130083
21.2516,-0.000133944
21.25212,-0.000124041
21.25263,-0.000103731
21.25315,-7.96E-05
21.25367,-6.04E-05
21.25419,-5.10E-05
21.25471,-4.85E-05
21.25523,-5.09E-05
21.25575,-5.46E-05
21.25627,-5.40E-05
21.25679,-4.85E-05
21.25731,-3.99E-05
21.25783,-2.77E-05
21.25835,-7.72E-06
21.25887,2.10E-05
21.25938,4.88E-05
21.2599,6.48E-05
21.26042,6.36E-05
21.26094,4.92E-05
21.26146,2.84E-05
21.26198,1.24E-05
21.2625,6.88E-06
21.26302,4.87E-06
21.26354,-2.01E-06
21.26406,-1.11E-05
21.26458,-1.70E-05
21.2651,-1.81E-05
21.26562,-1.80E-05
21.26613,-1.71E-05
21.26665,-1.44E-05
21.26717,-1.12E-05
21.26769,-9.40E-06
21.26821,-7.72E-06
21.26873,-3.52E-06
21.26925,4.53E-06
21.26977,1.46E-05
21.27029,2.27E-05
21.27081,3.09E-05
21.27133,3.88E-05
21.27185,4.41E-05
21.27237,4.93E-05
21.27288,5.67E-05
21.2734,6.46E-05
21.27392,7.03E-05
21.27444,7.40E-05
21.27496,7.54E-05
21.27548,7.64E-05
21.276,7.77E-05
21.27652,7.74E-05
21.27704,7.55E-05
21.27756,7.45E-05
21.27808,7.27E-05
21.2786,6.56E-05
21.27912,5.25E-05
21.27963,3.91E-05
21.28015,3.04E-05
21.28067,2.64E-05
21.28119,2.94E-05
21.28171,3.83E-05
21.28223,5.02E-05
21.28275,6.16E-05
21.28327,6.97E-05
21.28379,7.30E-05
21.28431,7.34E-05
21.28483,7.22E-05
21.28535,6.90E-05
21.28587,6.58E-05
21.28638,6.26E-05
21.2869,5.94E-05
21.28742,5.62E-05
21.28794,5.35E-05
21.28846,4.85E-05
21.28898,4.28E-05
21.2895,4.08E-05
21.29002,4.11E-05
21.29054,4.35E-05
21.29106,4.72E-05
21.29158,4.78E-05
21.2921,4.70E-05
21.29262,4.52E-05
21.29313,4.21E-05
21.29365,3.84E-05
21.29417,3.27E-05
21.29469,2.67E-05
21.29521,2.35E-05
21.29573,2.38E-05
21.29625,2.55E-05
21.29677,2.52E-05
21.29729,2.50E-05
21.29781,2.74E-05
21.29833,2.97E-05
21.29885,2.94E-05
21.29937,2.67E-05
21.29988,2.20E-05
21.3004,1.71E-05
21.30092,1.46E-05
21.30144,1.29E-05
21.30196,8.06E-06
21.30248,5.04E-07
21.303,-5.04E-06
21.30352,-7.72E-06
21.30404,-1.09E-05
21.30456,-1.70E-05
21.30508,-2.27E-05
21.3056,-2.38E-05
21.30612,-2.10E-05
21.30663,-1.63E-05
21.30715,-1.29E-05
21.30767,-1.36E-05
21.30819,-1.71E-05
21.30871,-1.91E-05
21.30923,-1.73E-05
21.30975,-1.04E-05
21.31027,1.34E-06
21.31079,1.78E-05
21.31131,4.16E-05
21.31183,7.50E-05
21.31235,0.000111284
21.31287,0.000141161
21.31339,0.000156939
21.3139,0.000154589
21.31442,0.00014284
21.31494,0.000135454
21.31546,0.000138476
21.31598,0.000152071
21.3165,0.000171542
21.31702,0.00018497
21.31754,0.000183795
21.31806,0.000167681
21.31858,0.000142001
21.3191,0.000109941
21.31962,7.49E-05
21.32014,4.28E-05
21.32065,1.86E-05
21.32117,2.85E-06
21.32169,-6.21E-06
21.32221,-9.23E-06
21.32273,-1.01E-05
21.32325,-9.57E-06
21.32377,-1.14E-05
21.32429,-1.63E-05
21.32481,-2.22E-05
21.32533,-2.64E-05
21.32585,-3.00E-05
21.32637,-3.34E-05
21.32689,-3.44E-05
21.3274,-3.07E-05
21.32792,-2.42E-05
21.32844,-1.90E-05
21.32896,-1.80E-05
21.32948,-1.96E-05
21.33,-2.15E-05
21.33052,-2.55E-05
21.33104,-3.05E-05
21.33156,-3.46E-05
21.33208,-3.88E-05
21.3326,-4.35E-05
21.33312,-4.75E-05
21.33364,-5.27E-05
21.33415,-6.18E-05
21.33467,-7.50E-05
21.33519,-8.91E-05
21.33571,-9.25E-05
21.33623,-7.54E-05
21.33675,-3.94E-05
21.33727,3.19E-06
21.33779,4.28E-05
21.33831,7.60E-05
21.33883,0.000102388
21.33935,0.000120012
21.33986,0.000131426
21.34039,0.000141497
21.3409,0.000149386
21.34142,0.000155428
21.34194,0.000164492
21.34246,0.000179767
21.34298,0.000198566
21.3435,0.000215686
21.34402,0.000223072
21.34454,0.000214008
21.34506,0.000181613
21.34558,0.000130755
21.3461,7.89E-05
21.34661,3.61E-05
21.34714,2.52E-06
21.34765,-2.20E-05
21.34817,-4.21E-05
21.34869,-6.31E-05
21.34921,-8.27E-05
21.34973,-9.63E-05
21.35025,-0.000102892
21.35077,-0.00010457
21.35129,-0.000102892
21.35181,-9.72E-05
21.35233,-8.74E-05
21.35285,-7.87E-05
21.35336,-7.42E-05
21.35389,-7.37E-05
21.3544,-7.59E-05
21.35492,-7.84E-05
21.35544,-8.01E-05
21.35596,-7.86E-05
21.35648,-7.20E-05
21.357,-6.33E-05
21.35752,-5.69E-05
21.35804,-5.35E-05
21.35856,-5.12E-05
21.35908,-4.58E-05
21.3596,-3.54E-05
21.36012,-2.45E-05
21.36064,-1.71E-05
21.36115,-1.26E-05
21.36167,-1.02E-05
21.36219,-1.14E-05
21.36271,-1.09E-05
21.36323,-8.39E-07
21.36375,1.85E-05
21.36427,4.05E-05
21.36479,5.74E-05
21.36531,6.78E-05
21.36583,7.35E-05
21.36635,8.01E-05
21.36687,8.85E-05
21.36738,9.65E-05
21.3679,0.000103059
21.36842,0.000108934
21.36894,0.000114641
21.36946,0.000118669
21.36998,0.000120348
21.3705,0.000123034
21.37102,0.000127901
21.37154,0.000132769
21.37206,0.00013344
21.37258,0.000128405
21.3731,0.000121355
21.37362,0.000114305
21.37413,0.000103563
21.37465,8.66E-05
21.37517,6.66E-05
21.37569,4.52E-05
21.37621,2.30E-05
21.37673,-1.34E-06
21.37725,-2.53E-05
21.37777,-4.15E-05
21.37829,-4.11E-05
21.37881,-2.75E-05
21.37933,-1.46E-05
21.37985,-1.09E-05
21.38037,-1.36E-05
21.38088,-1.70E-05
21.3814,-2.05E-05
21.38192,-2.35E-05
21.38244,-2.45E-05
21.38296,-2.43E-05
21.38348,-2.10E-05
21.384,-1.56E-05
21.38452,-8.39E-06
21.38504,2.52E-06
21.38556,1.17E-05
21.38608,1.26E-05
21.3866,3.86E-06
21.38712,-9.23E-06
21.38763,-1.71E-05
21.38815,-1.63E-05
21.38867,-9.40E-06
21.38919,-4.70E-06
21.38971,-8.39E-06
21.39023,-1.78E-05
21.39075,-2.23E-05
21.39127,-1.76E-05
21.39179,-7.22E-06
21.39231,1.85E-06
21.39283,4.53E-06
21.39335,3.02E-06
21.39387,3.86E-06
21.39438,1.04E-05
21.3949,1.70E-05
21.39542,2.10E-05
21.39594,2.62E-05
21.39646,3.51E-05
21.39698,4.52E-05
21.3975,5.19E-05
21.39802,5.05E-05
21.39854,4.46E-05
21.39906,4.26E-05
21.39958,4.82E-05
21.4001,6.16E-05
21.40062,8.22E-05
21.40113,0.000104906
21.40165,0.00012018
21.40217,0.000120012
21.40269,0.000105577
21.40321,8.64E-05
21.40373,6.36E-05
21.40425,3.73E-05
21.40477,1.38E-05
21.40529,-1.17E-06
21.40581,-1.33E-05
21.40633,-2.70E-05
21.40685,-3.98E-05
21.40737,-4.55E-05
21.40788,-3.96E-05
21.4084,-2.90E-05
21.40892,-1.80E-05
21.40944,-5.54E-06
21.40996,4.20E-06
21.41048,7.22E-06
21.411,7.22E-06
21.41152,5.87E-06
21.41204,4.87E-06
21.41256,3.69E-06
21.41308,-2.52E-06
21.4136,-1.36E-05
21.41412,-1.85E-05
21.41463,-1.23E-05
21.41515,-4.20E-06
21.41567,-3.69E-06
21.41619,-1.04E-05
21.41671,-2.23E-05
21.41723,-3.39E-05
21.41775,-3.71E-05
21.41827,-3.11E-05
21.41879,-2.01E-05
21.41931,-9.57E-06
21.41983,3.52E-06
21.42035,1.81E-05
21.42087,3.04E-05
21.42138,3.86E-05
21.4219,4.25E-05
21.42242,4.53E-05
21.42294,4.92E-05
21.42346,4.92E-05
21.42398,4.43E-05
21.4245,4.15E-05
21.42502,4.05E-05
21.42554,3.58E-05
21.42606,2.13E-05
21.42658,1.01E-06
21.4271,-1.21E-05
21.42762,-1.16E-05
21.42813,1.51E-06
21.42865,1.91E-05
21.42917,3.54E-05
21.42969,4.65E-05
21.43021,5.52E-05
21.43073,6.33E-05
21.43125,6.80E-05
21.43177,6.75E-05
21.43229,6.09E-05
21.43281,5.05E-05
21.43333,4.45E-05
21.43385,4.35E-05
21.43437,4.62E-05
21.43489,4.99E-05
21.4354,5.09E-05
21.43592,5.22E-05
21.43644,5.56E-05
21.43696,5.72E-05
21.43748,5.76E-05
21.438,6.09E-05
21.43852,6.53E-05
21.43904,6.61E-05
21.43956,6.03E-05
21.44008,5.25E-05
21.4406,4.65E-05
21.44112,4.08E-05
21.44164,3.68E-05
21.44215,3.41E-05
21.44267,3.14E-05
21.44319,2.80E-05
21.44371,2.43E-05
21.44423,2.25E-05
21.44475,2.27E-05
21.44527,2.27E-05
21.44579,1.96E-05
21.44631,1.36E-05
21.44683,1.11E-05
21.44735,1.76E-05
21.44787,3.17E-05
21.44839,4.75E-05
21.4489,5.66E-05
21.44942,5.46E-05
21.44994,4.26E-05
21.45046,2.53E-05
21.45098,9.74E-06
21.4515,2.85E-06
21.45202,-5.04E-07
21.45254,-5.71E-06
21.45306,-1.33E-05
21.45358,-1.80E-05
21.4541,-1.64E-05
21.45462,-7.55E-06
21.45514,6.55E-06
21.45565,1.76E-05
21.45617,2.08E-05
21.45669,1.88E-05
21.45721,1.53E-05
21.45773,1.73E-05
21.45825,2.87E-05
21.45877,4.01E-05
21.45929,4.25E-05
21.45981,3.66E-05
21.46033,2.84E-05
21.46085,1.76E-05
21.46136,7.22E-06
21.46189,5.87E-06
21.4624,1.70E-05
21.46292,3.14E-05
21.46344,3.74E-05
21.46396,3.74E-05
21.46448,4.31E-05
21.465,5.35E-05
21.46552,5.99E-05
21.46604,6.09E-05
21.46656,6.19E-05
21.46708,6.73E-05
21.4676,7.57E-05
21.46811,8.01E-05
21.46864,7.70E-05
21.46915,6.97E-05
21.46967,5.98E-05
21.47019,4.88E-05
21.47071,3.78E-05
21.47123,2.58E-05
21.47175,1.66E-05
21.47227,1.29E-05
21.47279,9.23E-06
21.47331,8.39E-07
21.47383,-7.72E-06
21.47435,-6.04E-06
21.47486,2.18E-06
21.47539,9.57E-06
21.4759,1.49E-05
21.47642,2.11E-05
21.47694,2.80E-05
21.47746,3.27E-05
21.47798,3.44E-05
21.4785,3.61E-05
21.47902,4.01E-05
21.47954,4.26E-05
21.48006,3.74E-05
21.48058,2.37E-05
21.4811,7.89E-06
21.48162,-4.70E-06
21.48214,-1.53E-05
21.48265,-2.60E-05
21.48317,-2.90E-05
21.48369,-2.03E-05
21.48421,-9.23E-06
21.48473,-6.71E-06
21.48525,-1.24E-05
21.48577,-2.17E-05
21.48629,-3.37E-05
21.48681,-4.72E-05
21.48733,-4.95E-05
21.48785,-3.46E-05
21.48837,-1.51E-05
21.48888,-2.69E-06
21.4894,4.20E-06
21.48992,1.01E-05
21.49044,1.17E-05
21.49096,7.72E-06
21.49148,5.54E-06
21.492,7.22E-06
21.49252,1.26E-05
21.49304,2.00E-05
21.49356,2.90E-05
21.49408,3.64E-05
21.4946,4.15E-05
21.49512,4.35E-05
21.49563,4.40E-05
21.49615,4.65E-05
21.49667,4.78E-05
21.49719,4.72E-05
21.49771,4.46E-05
21.49823,3.88E-05
21.49875,3.26E-05
21.49927,2.94E-05
21.49979,2.95E-05
21.50031,3.26E-05
21.50083,3.83E-05
21.50135,4.21E-05
21.50187,4.58E-05
21.50238,4.99E-05
21.5029,4.99E-05
21.50342,4.58E-05
21.50394,4.28E-05
21.50446,4.52E-05
21.50498,4.99E-05
21.5055,5.30E-05
21.50602,5.09E-05
21.50654,4.41E-05
21.50706,3.78E-05
21.50758,3.47E-05
21.5081,3.37E-05
21.50862,3.00E-05
21.50913,2.58E-05
21.50965,2.30E-05
21.51017,2.10E-05
21.51069,1.73E-05
21.51121,1.16E-05
21.51173,6.21E-06
21.51225,4.20E-06
21.51277,1.68E-06
21.51329,-3.52E-06
21.51381,-1.09E-05
21.51433,-1.78E-05
21.51485,-1.93E-05
21.51537,-1.11E-05
21.51588,8.39E-07
21.5164,7.89E-06
21.51692,1.02E-05
21.51744,1.17E-05
21.51796,1.12E-05
21.51848,7.72E-06
21.519,1.68E-06
21.51952,-3.36E-06
21.52004,-4.53E-06
21.52056,-4.20E-06
21.52108,-3.86E-06
21.5216,-3.19E-06
21.52212,-6.04E-06
21.52263,-1.04E-05
21.52315,-1.28E-05
21.52367,-1.17E-05
21.52419,-1.04E-05
21.52471,-1.23E-05
21.52523,-1.83E-05
21.52575,-2.33E-05
21.52627,-2.15E-05
21.52679,-1.39E-05
21.52731,-3.02E-06
21.52783,8.22E-06
21.52835,2.11E-05
21.52887,3.46E-05
21.52938,4.65E-05
21.5299,5.35E-05
21.53042,5.62E-05
21.53094,5.46E-05
21.53146,4.95E-05
21.53198,4.33E-05
21.5325,3.66E-05
21.53302,2.65E-05
21.53354,1.39E-05
21.53406,4.87E-06
21.53458,6.88E-06
21.5351,1.93E-05
21.53562,3.11E-05
21.53613,3.74E-05
21.53665,4.21E-05
21.53717,4.60E-05
21.53769,4.60E-05
21.53821,4.45E-05
21.53873,4.21E-05
21.53925,3.81E-05
21.53977,3.27E-05
21.54029,2.67E-05
21.54081,2.18E-05
21.54133,2.00E-05
21.54185,2.13E-05
21.54237,2.62E-05
21.54288,3.74E-05
21.5434,5.15E-05
21.54392,6.03E-05
21.54444,5.81E-05
21.54496,5.00E-05
21.54548,4.41E-05
21.546,3.78E-05
21.54652,2.48E-05
21.54704,1.19E-05
21.54756,7.72E-06
21.54808,1.23E-05
21.5486,2.22E-05
21.54912,3.41E-05
21.54963,4.68E-05
21.55015,5.87E-05
21.55067,6.43E-05
21.55119,6.83E-05
21.55171,7.23E-05
21.55223,7.23E-05
21.55275,6.83E-05
21.55327,6.56E-05
21.55379,6.33E-05
21.55431,5.89E-05
21.55483,4.95E-05
21.55535,3.61E-05
21.55587,2.37E-05
21.55639,1.80E-05
21.5569,1.58E-05
21.55742,1.16E-05
21.55794,8.22E-06
21.55846,8.39E-06
21.55898,1.12E-05
21.5595,1.34E-05
21.56002,1.39E-05
21.56054,2.03E-05
21.56106,3.37E-05
21.56158,4.95E-05
21.5621,6.58E-05
21.56262,8.21E-05
21.56314,9.45E-05
21.56365,0.00010071
21.56417,0.000104402
21.56469,0.00011313
21.56521,0.000124712
21.56573,0.000129915
21.56625,0.000124712
21.56677,0.000112627
21.56729,9.58E-05
21.56781,7.42E-05
21.56833,5.09E-05
21.56885,2.99E-05
21.56937,1.80E-05
21.56989,1.80E-05
21.5704,2.35E-05
21.57092,2.72E-05
21.57144,2.77E-05
21.57196,2.40E-05
21.57248,1.98E-05
21.573,1.80E-05
21.57352,1.68E-05
21.57404,1.63E-05
21.57456,1.71E-05
21.57508,1.96E-05
21.5756,2.33E-05
21.57612,2.65E-05
21.57664,2.90E-05
21.57715,3.02E-05
21.57767,3.07E-05
21.57819,3.39E-05
21.57871,3.88E-05
21.57923,4.11E-05
21.57975,3.98E-05
21.58027,3.64E-05
21.58079,2.97E-05
21.58131,1.98E-05
21.58183,6.88E-06
21.58235,-1.06E-05
21.58286,-3.04E-05
21.58339,-4.82E-05
21.5839,-6.50E-05
21.58442,-8.02E-05
21.58494,-9.23E-05
21.58546,-0.000102388
21.58598,-0.000110781
21.5865,-0.000115648
21.58702,-0.000117998
21.58754,-0.000119341
21.58806,-0.000121187
21.58858,-0.00012488
21.5891,-0.00012958
21.58961,-0.00013344
21.59014,-0.000135454
21.59065,-0.000134615
21.59117,-0.00013344
21.59169,-0.000133944
21.59221,-0.000135454
21.59273,-0.000135119
21.59325,-0.00013109
21.59377,-0.000125048
21.59429,-0.000118334
21.59481,-0.000111116
21.59533,-0.000101549
21.59585,-9.10E-05
21.59636,-8.09E-05
21.59689,-7.49E-05
21.5974,-7.34E-05
21.59792,-7.64E-05
21.59844,-8.59E-05
21.59896,-0.000104906
21.59948,-0.000129915
21.6,-0.000155093
21.60052,-0.000175067
21.60104,-0.000183627
21.60156,-0.000175403
21.60208,-0.000141833
21.6026,-7.20E-05
21.60312,3.68E-05
21.60364,0.000172213
21.60415,0.000308003
21.60467,0.000418113
21.60519,0.000483238
21.60571,0.000501701
21.60623,0.000477867
21.60675,0.000423484
21.60727,0.000346273
21.60779,0.00025127
21.60831,0.000149218
21.60883,5.35E-05
21.60935,-1.78E-05
21.60987,-5.94E-05
21.61038,-8.14E-05
21.6109,-8.74E-05
21.61142,-6.92E-05
21.61194,-2.20E-05
21.61246,4.92E-05
21.61298,0.000132097
21.6135,0.000212329
21.61402,0.000288197
21.61454,0.000364065
21.61506,0.000434058
21.61558,0.00047921
21.6161,0.000487099
21.61662,0.000458396
21.61713,0.000406363
21.61765,0.000345266
21.61817,0.000286854
21.61869,0.000238682
21.61921,0.000202258
21.61973,0.000179599
21.62025,0.00017171
21.62077,0.000176745
21.62129,0.000181277
21.62181,0.000177081
21.62233,0.000163653
21.62285,0.000140154
21.62337,0.000103227
21.62388,5.49E-05
21.6244,-2.18E-06
21.62492,-6.73E-05
21.62544,-0.000133776
21.62596,-0.000176074
21.62648,-0.000168353
21.627,-0.000112291
21.62752,-4.31E-05
21.62804,5.87E-06
21.62856,2.20E-05
21.62908,1.80E-05
21.6296,3.24E-05
21.63012,8.98E-05
21.63063,0.000167346
21.63116,0.000217029
21.63167,0.000213001
21.63219,0.000163653
21.63271,9.43E-05
21.63323,1.86E-05
21.63375,-5.17E-05
21.63427,-0.000110613
21.63479,-0.000155932
21.63531,-0.000190509
21.63583,-0.000216022
21.63635,-0.000235157
21.63687,-0.00025127
21.63738,-0.000265034
21.6379,-0.000276951
21.63842,-0.00028719
21.63894,-0.000295415
21.63946,-0.000299107
21.63998,-0.000293233
21.6405,-0.000273762
21.64102,-0.00024271
21.64154,-0.000203265
21.64206,-0.00016231
21.64258,-0.000125719
21.6431,-9.67E-05
21.64362,-7.57E-05
21.64413,-5.99E-05
21.64465,-4.92E-05
21.64517,-4.33E-05
21.64569,-3.94E-05
21.64621,-3.46E-05
21.64673,-2.79E-05
21.64725,-1.66E-05
21.64777,-3.02E-06
21.64829,8.90E-06
21.64881,1.53E-05
21.64933,1.49E-05
21.64985,8.73E-06
21.65037,1.68E-07
21.65088,-8.22E-06
21.6514,-1.71E-05
21.65192,-2.55E-05
21.65244,-3.26E-05
21.65296,-3.68E-05
21.65348,-3.74E-05
21.654,-3.31E-05
21.65452,-2.37E-05
21.65504,-9.06E-06
21.65556,6.88E-06
21.65608,2.00E-05
21.6566,3.00E-05
21.65712,3.71E-05
21.65763,4.08E-05
21.65815,4.28E-05
21.65867,4.46E-05
21.65919,4.73E-05
21.65971,5.25E-05
21.66023,5.79E-05
21.66075,6.50E-05
21.66127,7.57E-05
21.66179,8.64E-05
21.66231,9.21E-05
21.66283,8.81E-05
21.66335,7.44E-05
21.66387,5.52E-05
21.66438,3.61E-05
21.6649,1.58E-05
21.66542,-3.69E-06
21.66594,-1.70E-05
21.66646,-2.13E-05
21.66698,-2.00E-05
21.6675,-1.56E-05
21.66802,-9.06E-06
21.66854,3.36E-06
21.66906,2.20E-05
21.66958,4.28E-05
21.6701,6.26E-05
21.67062,7.64E-05
21.67113,8.31E-05
21.67165,8.31E-05
21.67217,8.04E-05
21.67269,7.89E-05
21.67321,7.89E-05
21.67373,7.65E-05
21.67425,7.23E-05
21.67477,6.76E-05
21.67529,6.06E-05
21.67581,5.29E-05
21.67633,4.65E-05
21.67685,3.99E-05
21.67737,3.27E-05
21.67789,2.99E-05
21.6784,2.90E-05
21.67892,2.90E-05
21.67944,3.14E-05
21.67996,3.74E-05
21.68048,4.52E-05
21.681,5.04E-05
21.68152,5.22E-05
21.68204,5.24E-05
21.68256,5.25E-05
21.68308,5.25E-05
21.6836,5.22E-05
21.68412,5.09E-05
21.68464,4.95E-05
21.68515,4.92E-05
21.68567,5.20E-05
21.68619,5.69E-05
21.68671,6.03E-05
21.68723,6.08E-05
21.68775,6.08E-05
21.68827,6.41E-05
21.68879,6.83E-05
21.68931,7.07E-05
21.68983,7.15E-05
21.69035,6.87E-05
21.69087,6.29E-05
21.69139,5.72E-05
21.6919,5.22E-05
21.69242,4.85E-05
21.69294,4.55E-05
21.69346,4.52E-05
21.69398,4.95E-05
21.6945,5.86E-05
21.69502,6.60E-05
21.69554,6.92E-05
21.69606,7.03E-05
21.69658,7.03E-05
21.6971,6.87E-05
21.69762,6.36E-05
21.69814,5.61E-05
21.69865,5.09E-05
21.69917,4.78E-05
21.69969,4.11E-05
21.70021,2.95E-05
21.70073,1.44E-05
21.70125,3.19E-06
21.70177,-3.02E-06
21.70229,-8.56E-06
21.70281,-1.36E-05
21.70333,-1.49E-05
21.70385,-1.38E-05
21.70436,-1.16E-05
21.70489,-1.02E-05
21.7054,-1.12E-05
21.70592,-1.23E-05
21.70644,-1.02E-05
21.70696,-7.89E-06
21.70748,-9.23E-06
21.708,-1.44E-05
21.70852,-2.22E-05
21.70904,-3.17E-05
21.70956,-4.40E-05
21.71008,-5.76E-05
21.7106,-6.92E-05
21.71111,-7.49E-05
21.71164,-7.15E-05
21.71215,-5.49E-05
21.71267,-2.57E-05
21.71319,9.90E-06
21.71371,4.18E-05
21.71423,6.13E-05
21.71475,6.70E-05
21.71527,6.53E-05
21.71579,6.36E-05
21.71631,6.55E-05
21.71683,6.70E-05
21.71735,6.26E-05
21.71786,4.92E-05
21.71839,3.42E-05
21.7189,2.94E-05
21.71942,4.26E-05
21.71994,7.57E-05
21.72046,0.000121355
21.72098,0.000164996
21.7215,0.000191684
21.72202,0.000196552
21.72254,0.000182452
21.72306,0.000156771
21.72358,0.000126055
21.7241,9.42E-05
21.72462,6.16E-05
21.72514,3.32E-05
21.72565,1.59E-05
21.72617,7.72E-06
21.72669,3.19E-06
21.72721,-8.39E-07
21.72773,-6.55E-06
21.72825,-1.23E-05
21.72877,-1.63E-05
21.72929,-1.91E-05
21.72981,-2.33E-05
21.73033,-2.87E-05
21.73085,-2.94E-05
21.73137,-2.35E-05
21.73188,-1.66E-05
21.7324,-1.34E-05
21.73292,-1.28E-05
21.73344,-1.36E-05
21.73396,-1.41E-05
21.73448,-5.54E-06
21.735,8.22E-06
21.73552,1.44E-05
21.73604,1.39E-05
21.73656,1.26E-05
21.73708,1.48E-05
21.7376,2.00E-05
21.73812,2.33E-05
21.73863,2.32E-05
21.73915,2.06E-05
21.73967,1.95E-05
21.74019,2.00E-05
21.74071,2.22E-05
21.74123,2.40E-05
21.74175,2.45E-05
21.74227,2.53E-05
21.74279,2.72E-05
21.74331,2.94E-05
21.74383,3.14E-05
21.74435,3.21E-05
21.74487,3.04E-05
21.74538,2.84E-05
21.7459,2.47E-05
21.74642,1.86E-05
21.74694,1.26E-05
21.74746,8.22E-06
21.74798,6.55E-06
21.7485,7.22E-06
21.74902,6.55E-06
21.74954,4.87E-06
21.75006,4.53E-06
21.75058,5.71E-06
21.7511,6.38E-06
21.75162,6.21E-06
21.75213,7.89E-06
21.75266,1.26E-05
21.75317,1.66E-05
21.75369,1.68E-05
21.75421,1.28E-05
21.75473,7.22E-06
21.75525,6.04E-06
21.75577,7.72E-06
21.75629,1.12E-05
21.75681,2.06E-05
21.75733,3.41E-05
21.75785,4.62E-05
21.75837,5.35E-05
21.75888,5.39E-05
21.7594,4.72E-05
21.75992,4.35E-05
21.76044,5.02E-05
21.76096,6.09E-05
21.76148,6.97E-05
21.762,7.49E-05
21.76252,7.42E-05
21.76304,7.07E-05
21.76356,6.66E-05
21.76408,6.14E-05
21.7646,5.44E-05
21.76512,4.57E-05
21.76563,3.58E-05
21.76615,2.23E-05
21.76667,2.85E-06
21.76719,-2.03E-05
21.76771,-3.68E-05
21.76823,-4.31E-05
21.76875,-4.40E-05
21.76927,-4.40E-05
21.76979,-4.52E-05
21.77031,-4.36E-05
21.77083,-3.66E-05
21.77135,-2.64E-05
21.77187,-1.59E-05
21.77238,-1.06E-05
21.7729,-1.26E-05
21.77342,-1.54E-05
21.77394,-1.43E-05
21.77446,-1.23E-05
21.77498,-1.11E-05
21.7755,-8.22E-06
21.77602,-1.34E-06
21.77654,8.90E-06
21.77706,1.88E-05
21.77758,2.53E-05
21.7781,2.74E-05
21.77862,2.48E-05
21.77913,1.80E-05
21.77965,9.23E-06
21.78017,-3.02E-06
21.78069,-1.78E-05
21.78121,-2.89E-05
21.78173,-2.38E-05
21.78225,3.52E-06
21.78277,4.13E-05
21.78329,7.15E-05
21.78381,8.81E-05
21.78433,9.55E-05
21.78485,9.53E-05
21.78537,8.93E-05
21.78588,8.04E-05
21.7864,7.00E-05
21.78692,6.09E-05
21.78744,5.34E-05
21.78796,4.55E-05
21.78848,3.93E-05
21.789,3.79E-05
21.78952,4.01E-05
21.79004,4.40E-05
21.79056,4.73E-05
21.79108,4.82E-05
21.7916,4.65E-05
21.79212,4.15E-05
21.79263,3.44E-05
21.79315,2.92E-05
21.79367,2.74E-05
21.79419,2.43E-05
21.79471,1.95E-05
21.79523,1.48E-05
21.79575,1.33E-05
21.79627,1.38E-05
21.79679,1.46E-05
21.79731,1.71E-05
21.79783,2.20E-05
21.79835,2.97E-05
21.79887,3.88E-05
21.79939,4.82E-05
21.7999,5.76E-05
21.80042,6.23E-05
21.80094,5.76E-05
21.80146,4.48E-05
21.80198,2.94E-05
21.8025,1.24E-05
21.80302,-8.22E-06
21.80354,-2.94E-05
21.80406,-4.26E-05
21.80458,-3.79E-05
21.8051,-2.11E-05
21.80562,-7.22E-06
21.80614,-3.36E-07
21.80665,5.71E-06
21.80717,1.36E-05
21.80769,1.96E-05
21.80821,1.96E-05
21.80873,1.49E-05
21.80925,1.17E-05
21.80977,1.34E-05
21.81029,1.59E-05
21.81081,1.53E-05
21.81133,1.38E-05
21.81185,1.53E-05
21.81237,2.00E-05
21.81289,2.35E-05
21.8134,2.13E-05
21.81392,1.48E-05
21.81444,7.05E-06
21.81496,1.01E-06
21.81548,-4.36E-06
21.816,-8.56E-06
21.81652,-3.86E-06
21.81704,1.31E-05
21.81756,3.19E-05
21.81808,4.21E-05
21.8186,4.40E-05
21.81912,4.77E-05
21.81964,6.11E-05
21.82015,7.79E-05
21.82067,8.21E-05
21.82119,7.10E-05
21.82171,5.62E-05
21.82223,4.43E-05
21.82275,3.93E-05
21.82327,3.34E-05
21.82379,1.76E-05
21.82431,2.85E-06
21.82483,5.04E-07
21.82535,7.05E-06
21.82586,1.53E-05
21.82639,1.86E-05
21.8269,1.56E-05
21.82742,1.02E-05
21.82794,4.53E-06
21.82846,-2.85E-06
21.82898,-1.17E-05
21.8295,-2.22E-05
21.83002,-3.37E-05
21.83054,-4.15E-05
21.83106,-3.96E-05
21.83158,-2.84E-05
21.8321,-1.19E-05
21.83261,6.55E-06
21.83314,2.23E-05
21.83365,3.00E-05
21.83417,3.07E-05
21.83469,3.19E-05
21.83521,3.91E-05
21.83573,5.07E-05
21.83625,6.13E-05
21.83677,6.92E-05
21.83729,7.64E-05
21.83781,8.11E-05
21.83833,7.37E-05
21.83885,5.35E-05
21.83937,3.21E-05
21.83989,1.38E-05
21.8404,-4.87E-06
21.84092,-2.27E-05
21.84144,-2.84E-05
21.84196,-1.95E-05
21.84248,-6.88E-06
21.843,-3.36E-07
21.84352,-7.72E-06
21.84404,-3.02E-05
21.84456,-5.74E-05
21.84508,-6.93E-05
21.8456,-5.29E-05
21.84612,-1.51E-05
21.84664,2.87E-05
21.84715,6.41E-05
21.84767,8.24E-05
21.84819,8.58E-05
21.84871,8.31E-05
21.84923,7.50E-05
21.84975,6.50E-05
21.85027,5.66E-05
21.85079,5.20E-05
21.85131,5.46E-05
21.85183,6.36E-05
21.85235,7.02E-05
21.85287,7.07E-05
21.85338,7.20E-05
21.8539,7.37E-05
21.85442,6.81E-05
21.85494,5.40E-05
21.85546,3.78E-05
21.85598,2.94E-05
21.8565,3.21E-05
21.85702,3.88E-05
21.85754,4.21E-05
21.85806,3.89E-05
21.85858,3.00E-05
21.8591,1.59E-05
21.85962,-6.71E-07
21.86013,-1.38E-05
21.86065,-2.17E-05
21.86117,-2.17E-05
21.86169,-9.40E-06
21.86221,8.73E-06
21.86273,2.06E-05
21.86325,2.37E-05
21.86377,2.64E-05
21.86429,3.41E-05
21.86481,4.20E-05
21.86533,4.28E-05
21.86585,3.88E-05
21.86637,3.71E-05
21.86688,3.86E-05
21.8674,3.69E-05
21.86792,2.99E-05
21.86844,2.20E-05
21.86896,1.59E-05
21.86948,1.46E-05
21.87,2.17E-05
21.87052,3.26E-05
21.87104,4.05E-05
21.87156,4.46E-05
21.87208,5.12E-05
21.8726,6.28E-05
21.87312,7.35E-05
21.87363,7.82E-05
21.87416,7.70E-05
21.87467,7.17E-05
21.87519,6.53E-05
21.87571,5.72E-05
21.87623,4.38E-05
21.87675,2.38E-05
21.87727,-2.18E-06
21.87779,-3.00E-05
21.87831,-4.82E-05
21.87883,-4.75E-05
21.87935,-3.14E-05
21.87987,-8.39E-06
21.88038,1.36E-05
21.8809,3.11E-05
21.88142,4.28E-05
21.88194,4.62E-05
21.88246,4.08E-05
21.88298,3.21E-05
21.8835,2.52E-05
21.88402,2.06E-05
21.88454,2.03E-05
21.88506,2.25E-05
21.88558,2.43E-05
21.8861,2.37E-05
21.88662,1.98E-05
21.88713,1.33E-05
21.88765,8.39E-07
21.88817,-1.95E-05
21.88869,-3.91E-05
21.88921,-4.83E-05
21.88973,-4.60E-05
21.89025,-3.54E-05
21.89077,-2.23E-05
21.89129,-1.29E-05
21.89181,-8.56E-06
21.89233,-9.23E-06
21.89285,-1.33E-05
21.89337,-1.56E-05
21.89388,-1.31E-05
21.8944,-7.05E-06
21.89492,4.20E-06
21.89544,1.93E-05
21.89596,3.21E-05
21.89648,3.59E-05
21.897,3.02E-05
21.89752,1.70E-05
21.89804,2.85E-06
21.89856,-1.51E-06
21.89908,7.55E-06
21.8996,2.06E-05
21.90012,2.65E-05
21.90063,2.72E-05
21.90115,2.80E-05
21.90167,2.97E-05
21.90219,3.07E-05
21.90271,2.70E-05
21.90323,2.00E-05
21.90375,1.43E-05
21.90427,1.29E-05
21.90479,1.54E-05
21.90531,1.88E-05
21.90583,2.45E-05
21.90635,3.04E-05
21.90687,3.17E-05
21.90738,2.82E-05
21.9079,2.57E-05
21.90842,2.50E-05
21.90894,2.25E-05
21.90946,1.85E-05
21.90998,1.93E-05
21.9105,2.70E-05
21.91102,3.24E-05
21.91154,2.67E-05
21.91206,1.53E-05
21.91258,7.05E-06
21.9131,9.23E-06
21.91362,1.91E-05
21.91413,2.90E-05
21.91465,3.21E-05
21.91517,2.77E-05
21.91569,1.86E-05
21.91621,1.06E-05
21.91673,6.21E-06
21.91725,5.20E-06
21.91777,5.54E-06
21.91829,6.04E-06
21.91881,1.11E-05
21.91933,1.70E-05
21.91985,1.90E-05
21.92037,2.20E-05
21.92089,2.72E-05
21.9214,3.21E-05
21.92192,3.68E-05
21.92244,3.94E-05
21.92296,4.15E-05
21.92348,4.48E-05
21.924,4.82E-05
21.92452,4.85E-05
21.92504,4.78E-05
21.92556,5.20E-05
21.92608,5.82E-05
21.9266,6.31E-05
21.92712,6.31E-05
21.92764,5.86E-05
21.92815,5.15E-05
21.92867,4.40E-05
21.92919,4.08E-05
21.92971,4.05E-05
21.93023,3.96E-05
21.93075,3.96E-05
21.93127,4.01E-05
21.93179,3.71E-05
21.93231,3.07E-05
21.93283,2.11E-05
21.93335,6.71E-06
21.93387,-6.38E-06
21.93439,-1.02E-05
21.9349,-8.39E-07
21.93542,1.93E-05
21.93594,3.94E-05
21.93646,5.32E-05
21.93698,6.06E-05
21.9375,6.29E-05
21.93802,5.89E-05
21.93854,5.29E-05
21.93906,4.38E-05
21.93958,3.04E-05
21.9401,1.83E-05
21.94061,1.38E-05
21.94114,1.43E-05
21.94165,1.76E-05
21.94217,2.10E-05
21.94269,1.81E-05
21.94321,9.57E-06
21.94373,1.01E-06
21.94425,-4.87E-06
21.94477,-7.89E-06
21.94529,-8.22E-06
21.94581,-9.23E-06
21.94633,-9.23E-06
21.94685,-3.86E-06
21.94736,5.87E-06
21.94789,1.70E-05
21.9484,2.60E-05
21.94892,3.21E-05
21.94944,3.86E-05
21.94996,4.46E-05
21.95048,4.72E-05
21.951,4.52E-05
21.95152,4.16E-05
21.95204,4.01E-05
21.95256,4.08E-05
21.95308,4.40E-05
21.9536,5.09E-05
21.95411,5.69E-05
21.95464,5.62E-05
21.95515,5.15E-05
21.95567,4.55E-05
21.95619,3.91E-05
21.95671,3.21E-05
21.95723,2.50E-05
21.95775,1.76E-05
21.95827,1.29E-05
21.95879,1.26E-05
21.95931,1.56E-05
21.95983,2.06E-05
21.96035,2.94E-05
21.96087,4.55E-05
21.96139,6.95E-05
21.9619,9.15E-05
21.96242,0.000104234
21.96294,0.000107256
21.96346,0.000103227
21.96398,9.48E-05
21.9645,8.27E-05
21.96502,6.46E-05
21.96554,4.45E-05
21.96606,3.04E-05
21.96658,2.43E-05
21.9671,2.30E-05
21.96762,2.22E-05
21.96813,2.18E-05
21.96865,2.18E-05
21.96917,2.22E-05
21.96969,2.43E-05
21.97021,3.00E-05
21.97073,4.01E-05
21.97125,5.39E-05
21.97177,6.43E-05
21.97229,6.21E-05
21.97281,4.83E-05
21.97333,3.14E-05
21.97385,1.17E-05
21.97437,-9.57E-06
21.97488,-2.80E-05
21.9754,-4.06E-05
21.97592,-4.87E-05
21.97644,-5.67E-05
21.97696,-6.73E-05
21.97748,-7.57E-05
21.978,-7.08E-05
21.97852,-4.72E-05
21.97904,-1.28E-05
21.97956,1.71E-05
21.98008,3.17E-05
21.9806,2.57E-05
21.98112,1.85E-06
21.98163,-3.07E-05
21.98215,-6.50E-05
21.98267,-0.000100542
21.98319,-0.000135119
21.98371,-0.000161639
21.98423,-0.000176745
21.98475,-0.000181109
21.98527,-0.00017171
21.98579,-0.000143343
21.98631,-9.82E-05
21.98683,-4.45E-05
21.98735,6.04E-06
21.98787,4.38E-05
21.98838,6.23E-05
21.9889,6.14E-05
21.98942,4.75E-05
21.98994,2.92E-05
21.99046,1.01E-05
21.99098,-1.17E-06
21.9915,-5.04E-07
21.99202,6.21E-06
21.99254,1.36E-05
21.99306,2.13E-05
21.99358,2.84E-05
21.9941,3.07E-05
21.99462,2.77E-05
21.99513,1.95E-05
21.99565,5.20E-06
21.99617,-1.86E-05
21.99669,-5.12E-05
21.99721,-9.25E-05
21.99773,-0.000141497
21.99825,-0.00019353
21.99877,-0.000239521
21.99929,-0.000272923
21.99981,-0.000286183
22.00033,-0.000274937
22.00085,-0.000241871
22.00137,-0.000186481
22.00188,-0.000109606
22.0024,-1.36E-05
22.00292,9.89E-05
22.00344,0.000211994
22.00396,0.000304646
22.00448,0.000368429
22.005,0.000406027
22.00552,0.000425834
22.00604,0.000438926
22.00656,0.000448325
22.00708,0.000447654
22.0076,0.000433555
22.00812,0.000409384
22.00863,0.000385885
22.00915,0.000366415
22.00967,0.000346273
22.01019,0.00032546
22.01071,0.000310353
22.01123,0.000303639
22.01175,0.000301289
22.01227,0.000297932
22.01279,0.000293233
22.01331,0.000287861
22.01383,0.000281148
22.01435,0.000272419
22.01487,0.000259327
22.01538,0.000237003
22.0159,0.000208469
22.01642,0.000180774
22.01694,0.000158282
22.01746,0.00013814
22.01798,0.000117998
22.0185,9.92E-05
22.01902,8.11E-05
22.01954,6.38E-05
22.02006,4.80E-05
22.02058,3.09E-05
22.0211,1.14E-05
22.02162,-1.17E-05
22.02213,-3.68E-05
22.02265,-5.84E-05
22.02317,-7.47E-05
22.02369,-8.74E-05
22.02421,-9.95E-05
22.02473,-0.000109941
22.02525,-0.000117662
22.02577,-0.000122362
22.02629,-0.000126055
22.02681,-0.00012874
22.02733,-0.000129076
22.02785,-0.000130922
22.02837,-0.00013579
22.02888,-0.000142504
22.0294,-0.000150729
22.02992,-0.000159121
22.03044,-0.000164828
22.03096,-0.000171878
22.03148,-0.000180438
22.032,-0.000188663
22.03252,-0.000194369
22.03304,-0.000197223
22.03356,-0.000196887
22.03408,-0.000194034
22.0346,-0.000190677
22.03512,-0.000187823
22.03563,-0.000184802
22.03615,-0.00018027
22.03667,-0.00017557
22.03719,-0.000172717
22.03771,-0.00017171
22.03823,-0.00017171
22.03875,-0.000172549
22.03927,-0.00017406
22.03979,-0.000177081
22.04031,-0.000181445
22.04083,-0.000188327
22.04135,-0.000194202
22.04187,-0.000197559
22.04239,-0.000195377
22.0429,-0.000183124
22.04342,-0.000153918
22.04394,-0.000105074
22.04446,-4.15E-05
22.04498,2.87E-05
22.0455,8.91E-05
22.04602,0.000126726
22.04654,0.000139483
22.04706,0.000135287
22.04758,0.000125719
22.0481,0.000115312
22.04862,0.000103563
22.04914,9.06E-05
22.04965,7.82E-05
22.05017,6.97E-05
22.05069,6.16E-05
22.05121,4.99E-05
22.05173,3.52E-05
22.05225,2.23E-05
22.05277,1.02E-05
22.05329,-3.19E-06
22.05381,-1.93E-05
22.05433,-3.74E-05
22.05485,-5.39E-05
22.05537,-6.73E-05
22.05589,-7.77E-05
22.0564,-8.68E-05
22.05692,-9.58E-05
22.05744,-0.000103395
22.05796,-0.000104234
22.05848,-9.13E-05
22.059,-6.16E-05
22.05952,-1.43E-05
22.06004,4.55E-05
22.06056,0.000105913
22.06108,0.000167346
22.0616,0.000237507
22.06211,0.000318578
22.06264,0.000406027
22.06315,0.000483238
22.06367,0.000531243
22.06419,0.000535607
22.06471,0.000495323
22.06523,0.000425498
22.06575,0.000346944
22.06627,0.000277791
22.06679,0.000225086
22.06731,0.000187823
22.06783,0.000159625
22.06835,0.000133776
22.06886,0.000110277
22.06939,8.91E-05
22.0699,7.05E-05
22.07042,5.25E-05
22.07094,3.34E-05
22.07146,1.46E-05
22.07198,-8.39E-07
22.0725,-1.06E-05
22.07302,-1.58E-05
22.07354,-1.83E-05
22.07406,-2.27E-05
22.07458,-3.12E-05
22.0751,-4.13E-05
22.07561,-5.12E-05
22.07614,-5.96E-05
22.07665,-6.73E-05
22.07717,-7.54E-05
22.07769,-8.68E-05
22.07821,-0.000102388
22.07873,-0.000119509
22.07925,-0.00013193
22.07977,-0.000133104
22.08029,-0.000121523
22.08081,-0.000101213
22.08133,-8.14E-05
22.08185,-7.03E-05
22.08237,-7.08E-05
22.08289,-7.64E-05
22.0834,-7.79E-05
22.08392,-7.07E-05
22.08444,-5.76E-05
22.08496,-4.25E-05
22.08548,-2.84E-05
22.086,-1.53E-05
22.08652,-5.54E-06
22.08704,1.01E-06
22.08756,6.04E-06
22.08808,9.90E-06
22.0886,1.26E-05
22.08912,1.43E-05
22.08963,1.58E-05
22.09015,1.71E-05
22.09067,1.86E-05
22.09119,2.11E-05
22.09171,2.53E-05
22.09223,2.97E-05
22.09275,3.34E-05
22.09327,3.84E-05
22.09379,4.28E-05
22.09431,4.75E-05
22.09483,5.34E-05
22.09535,5.76E-05
22.09587,5.67E-05
22.09638,5.14E-05
22.0969,4.62E-05
22.09742,4.40E-05
22.09794,4.20E-05
22.09846,3.78E-05
22.09898,3.51E-05
22.0995,3.59E-05
22.10002,3.71E-05
22.10054,3.74E-05
22.10106,3.91E-05
22.10158,4.58E-05
22.1021,5.49E-05
22.10262,6.13E-05
22.10313,6.51E-05
22.10365,6.93E-05
22.10417,7.20E-05
22.10469,6.95E-05
22.10521,6.01E-05
22.10573,4.82E-05
22.10625,4.11E-05
22.10677,3.91E-05
22.10729,3.94E-05
22.10781,3.88E-05
22.10833,3.61E-05
22.10885,3.21E-05
22.10937,3.21E-05
22.10988,3.56E-05
22.1104,3.71E-05
22.11092,3.61E-05
22.11144,3.31E-05
22.11196,2.58E-05
22.11248,1.59E-05
22.113,8.56E-06
22.11352,6.04E-06
22.11404,8.56E-06
22.11456,1.12E-05
22.11508,1.12E-05
22.1156,1.06E-05
22.11612,1.12E-05
22.11663,1.33E-05
22.11715,1.66E-05
22.11767,1.90E-05
22.11819,1.88E-05
22.11871,1.93E-05
22.11923,2.17E-05
22.11975,2.90E-05
22.12027,4.28E-05
22.12079,6.19E-05
22.12131,8.09E-05
22.12183,9.55E-05
22.12235,0.00010222
22.12287,9.75E-05
22.12338,8.07E-05
22.1239,5.66E-05
22.12442,3.34E-05
22.12494,1.19E-05
22.12546,-7.55E-06
22.12598,-1.70E-05
22.1265,-1.21E-05
22.12702,-2.18E-06
22.12754,4.36E-06
22.12806,4.70E-06
22.12858,-3.36E-07
22.1291,-9.23E-06
22.12962,-2.25E-05
22.13013,-3.81E-05
22.13065,-5.24E-05
22.13117,-6.16E-05
22.13169,-6.03E-05
22.13221,-4.52E-05
22.13273,-2.00E-05
22.13325,7.89E-06
22.13377,3.46E-05
22.13429,5.35E-05
22.13481,6.16E-05
22.13533,6.34E-05
22.13585,6.63E-05
22.13637,7.75E-05
22.13688,0.000103563
22.1374,0.000142001
22.13792,0.000179767
22.13844,0.000203098
22.13896,0.000200244
22.13948,0.000173053
22.14,0.000139315
22.14052,0.000112963
22.14104,9.45E-05
22.14156,7.57E-05
22.14208,5.22E-05
22.1426,2.99E-05
22.14312,1.34E-05
22.14363,3.02E-06
22.14415,-2.35E-06
22.14467,-7.55E-06
22.14519,-1.61E-05
22.14571,-2.87E-05
22.14623,-5.19E-05
22.14675,-9.05E-05
22.14727,-0.000138476
22.14779,-0.000183459
22.14831,-0.000212665
22.14883,-0.000219043
22.14935,-0.000207965
22.14987,-0.000186481
22.15038,-0.000150561
22.1509,-9.20E-05
22.15142,-9.90E-06
22.15194,8.44E-05
22.15246,0.000168353
22.15298,0.000233814
22.1535,0.000285176
22.15402,0.000323446
22.15454,0.000349294
22.15506,0.000357855
22.15558,0.000338216
22.1561,0.000292226
22.15662,0.000230625
22.15714,0.00017171
22.15765,0.000125383
22.15817,8.95E-05
22.15869,5.89E-05
22.15921,3.17E-05
22.15973,8.39E-06
22.16025,-1.31E-05
22.16077,-3.49E-05
22.16129,-5.39E-05
22.16181,-6.61E-05
22.16233,-7.28E-05
22.16285,-7.94E-05
22.16337,-8.49E-05
22.16389,-8.61E-05
22.1644,-8.53E-05
22.16492,-8.36E-05
22.16544,-8.09E-05
22.16596,-8.09E-05
22.16648,-8.56E-05
22.167,-9.28E-05
22.16752,-9.63E-05
22.16804,-8.90E-05
22.16856,-7.17E-05
22.16908,-5.25E-05
22.1696,-3.98E-05
22.17012,-3.68E-05
22.17064,-3.21E-05
22.17115,-1.68E-05
22.17167,0
22.17219,8.22E-06
22.17271,7.89E-06
22.17323,4.36E-06
22.17375,1.17E-06
22.17427,8.39E-07
22.17479,3.86E-06
22.17531,9.90E-06
22.17583,1.85E-05
22.17635,2.45E-05
22.17687,2.27E-05
22.17739,1.51E-05
22.1779,8.39E-06
22.17842,5.20E-06
22.17894,3.86E-06
22.17946,1.51E-06
22.17998,0
22.1805,1.17E-06
22.18102,0
22.18154,-3.86E-06
22.18206,-6.04E-06
22.18258,-4.20E-06
22.1831,1.68E-06
22.18361,7.05E-06
22.18414,9.23E-06
22.18465,8.90E-06
22.18517,7.89E-06
22.18569,1.17E-05
22.18621,2.05E-05
22.18673,2.77E-05
22.18725,2.65E-05
22.18777,1.80E-05
22.18829,9.23E-06
22.18881,4.03E-06
22.18933,-1.17E-06
22.18985,-9.90E-06
22.19036,-2.17E-05
22.19089,-2.99E-05
22.1914,-2.43E-05
22.19192,-4.53E-06
22.19244,1.93E-05
22.19296,3.52E-05
22.19348,4.23E-05
22.194,4.55E-05
22.19452,4.72E-05
22.19504,4.78E-05
22.19556,4.82E-05
22.19608,4.82E-05
22.1966,4.67E-05
22.19711,4.28E-05
22.19764,4.06E-05
22.19815,3.96E-05
22.19867,3.93E-05
22.19919,4.05E-05
22.19971,4.36E-05
22.20023,4.95E-05
22.20075,6.03E-05
22.20127,7.10E-05
22.20179,8.07E-05
22.20231,9.42E-05
22.20283,0.000111284
22.20335,0.000124041
22.20387,0.000128237
22.20439,0.000125719
22.2049,0.000117662
22.20542,0.000105913
22.20594,9.25E-05
22.20646,8.41E-05
22.20698,8.11E-05
22.2075,7.60E-05
22.20802,6.21E-05
22.20854,4.68E-05
22.20906,3.52E-05
22.20958,2.74E-05
22.2101,2.38E-05
22.21062,1.48E-05
22.21113,1.01E-06
22.21165,-5.20E-06
22.21217,-5.04E-06
22.21269,-5.54E-06
22.21321,-9.90E-06
22.21373,-1.66E-05
22.21425,-2.79E-05
22.21477,-3.83E-05
22.21529,-3.78E-05
22.21581,-2.50E-05
22.21633,-4.36E-06
22.21685,1.90E-05
22.21737,4.35E-05
22.21788,6.33E-05
22.2184,7.35E-05
22.21892,7.37E-05
22.21944,6.70E-05
22.21996,5.74E-05
22.22048,4.93E-05
22.221,4.55E-05
22.22152,4.01E-05
22.22204,2.53E-05
22.22256,4.20E-06
22.22308,-1.04E-05
22.2236,-1.70E-05
22.22412,-2.08E-05
22.22463,-2.38E-05
22.22515,-2.82E-05
22.22567,-2.70E-05
22.22619,-1.70E-05
22.22671,-8.22E-06
22.22723,-1.04E-05
22.22775,-1.63E-05
22.22827,-1.46E-05
22.22879,-8.56E-06
22.22931,-6.55E-06
22.22983,-7.55E-06
22.23035,-3.86E-06
22.23087,3.69E-06
22.23138,6.21E-06
22.2319,2.52E-06
22.23242,-8.39E-07
22.23294,1.51E-06
22.23346,1.02E-05
22.23398,2.47E-05
22.2345,3.96E-05
22.23502,4.58E-05
22.23554,4.55E-05
22.23606,4.21E-05
22.23658,3.73E-05
22.2371,3.17E-05
22.23762,2.84E-05
22.23813,1.90E-05
22.23865,1.51E-06
22.23917,-1.12E-05
22.23969,-1.06E-05
22.24021,-1.01E-06
22.24073,9.06E-06
22.24125,1.68E-05
22.24177,2.05E-05
22.24229,1.73E-05
22.24281,8.56E-06
22.24333,2.18E-06
22.24385,3.52E-06
22.24437,5.87E-06
22.24488,5.04E-06
22.2454,5.04E-07
22.24592,-8.22E-06
22.24644,-1.78E-05
22.24696,-2.06E-05
22.24748,-1.90E-05
22.248,-2.06E-05
22.24852,-2.10E-05
22.24904,-9.06E-06
22.24956,9.90E-06
22.25008,2.33E-05
22.2506,2.75E-05
22.25112,2.70E-05
22.25163,2.43E-05
22.25215,1.91E-05
22.25267,1.39E-05
22.25319,1.02E-05
22.25371,1.04E-05
22.25423,1.56E-05
22.25475,2.40E-05
22.25527,3.14E-05
22.25579,3.54E-05
22.25631,3.84E-05
22.25683,4.28E-05
22.25735,4.73E-05
22.25787,5.12E-05
22.25838,5.34E-05
22.2589,4.92E-05
22.25942,3.83E-05
22.25994,2.85E-05
22.26046,2.57E-05
22.26098,3.27E-05
22.2615,4.55E-05
22.26202,5.62E-05
22.26254,6.51E-05
22.26306,7.27E-05
22.26358,7.87E-05
22.2641,8.41E-05
22.26462,8.91E-05
22.26513,9.21E-05
22.26565,8.96E-05
22.26617,8.26E-05
22.26669,7.49E-05
22.26721,6.75E-05
22.26773,6.36E-05
22.26825,6.66E-05
22.26877,7.34E-05
22.26929,7.74E-05
22.26981,7.70E-05
22.27033,7.50E-05
22.27085,7.22E-05
22.27137,6.70E-05
22.27188,5.81E-05
22.2724,4.80E-05
22.27292,4.20E-05
22.27344,4.08E-05
22.27396,3.58E-05
22.27448,2.23E-05
22.275,3.19E-06
22.27552,-1.98E-05
22.27604,-3.81E-05
22.27656,-4.08E-05
22.27708,-2.70E-05
22.2776,-4.36E-06
22.27812,1.58E-05
22.27864,2.72E-05
22.27915,2.87E-05
22.27967,2.33E-05
22.28019,1.58E-05
22.28071,8.90E-06
22.28123,8.39E-07
22.28175,-6.55E-06
22.28227,-9.23E-06
22.28279,-7.72E-06
22.28331,-5.54E-06
22.28383,-3.19E-06
22.28435,2.52E-06
22.28487,1.26E-05
22.28539,2.13E-05
22.2859,2.27E-05
22.28642,1.73E-05
22.28694,1.01E-05
22.28746,1.34E-06
22.28798,-7.22E-06
22.2885,-1.38E-05
22.28902,-1.61E-05
22.28954,-1.24E-05
22.29006,-7.05E-06
22.29058,-5.87E-06
22.2911,-5.54E-06
22.29162,-8.39E-07
22.29214,1.12E-05
22.29265,2.40E-05
22.29317,3.09E-05
22.29369,3.14E-05
22.29421,3.21E-05
22.29473,3.37E-05
22.29525,3.36E-05
22.29577,3.02E-05
22.29629,2.77E-05
22.29681,2.74E-05
22.29733,2.75E-05
22.29785,2.99E-05
22.29837,3.71E-05
22.29889,4.92E-05
22.2994,5.93E-05
22.29992,6.29E-05
22.30044,6.06E-05
22.30096,5.81E-05
22.30148,5.86E-05
22.302,5.66E-05
22.30252,4.77E-05
22.30304,3.51E-05
22.30356,2.35E-05
22.30408,1.44E-05
22.3046,5.04E-06
22.30511,-4.03E-06
22.30564,-5.54E-06
22.30615,1.68E-06
22.30667,1.06E-05
22.30719,1.63E-05
22.30771,1.64E-05
22.30823,9.57E-06
22.30875,-3.36E-07
22.30927,-9.23E-06
22.30979,-1.49E-05
22.31031,-1.66E-05
22.31083,-1.54E-05
22.31135,-1.39E-05
22.31186,-1.02E-05
22.31239,-5.04E-06
22.3129,-2.69E-06
22.31342,-6.38E-06
22.31394,-1.43E-05
22.31446,-2.22E-05
22.31498,-2.67E-05
22.3155,-2.25E-05
22.31602,-8.56E-06
22.31654,1.16E-05
22.31706,2.74E-05
22.31758,3.52E-05
22.3181,3.94E-05
22.31861,4.05E-05
22.31914,3.84E-05
22.31965,3.41E-05
22.32017,2.70E-05
22.32069,1.76E-05
22.32121,9.74E-06
22.32173,4.53E-06
22.32225,8.39E-07
22.32277,-1.68E-06
22.32329,-1.85E-06
22.32381,-3.02E-06
22.32433,-4.87E-06
22.32485,-4.20E-06
22.32537,1.85E-06
22.32589,9.23E-06
22.3264,1.33E-05
22.32692,1.53E-05
22.32744,1.63E-05
22.32796,1.70E-05
22.32848,2.37E-05
22.329,3.46E-05
22.32952,4.05E-05
22.33004,4.33E-05
22.33056,4.93E-05
22.33108,5.76E-05
22.3316,6.40E-05
22.33212,6.23E-05
22.33263,5.29E-05
22.33315,4.15E-05
22.33367,3.21E-05
22.33419,2.43E-05
22.33471,1.91E-05
22.33523,1.78E-05
22.33575,1.95E-05
22.33627,2.25E-05
22.33679,2.57E-05
22.33731,2.79E-05
22.33783,2.65E-05
22.33835,2.25E-05
22.33887,1.98E-05
22.33938,1.93E-05
22.3399,2.13E-05
22.34042,2.67E-05
22.34094,3.07E-05
22.34146,3.12E-05
22.34198,3.14E-05
22.3425,3.27E-05
22.34302,3.54E-05
22.34354,4.41E-05
22.34406,5.59E-05
22.34458,6.76E-05
22.3451,7.74E-05
22.34562,8.07E-05
22.34613,7.64E-05
22.34665,6.81E-05
22.34717,6.06E-05
22.34769,5.35E-05
22.34821,5.00E-05
22.34873,4.97E-05
22.34925,5.27E-05
22.34977,6.04E-05
22.35029,7.03E-05
22.35081,8.04E-05
22.35133,8.69E-05
22.35185,8.85E-05
22.35237,8.95E-05
22.35288,9.28E-05
22.3534,9.43E-05
22.35392,9.03E-05
22.35444,8.21E-05
22.35496,7.23E-05
22.35548,6.41E-05
22.356,5.89E-05
22.35652,5.54E-05
22.35704,5.25E-05
22.35756,4.87E-05
22.35808,4.43E-05
22.3586,4.01E-05
22.35912,3.47E-05
22.35963,3.07E-05
22.36015,3.21E-05
22.36067,4.06E-05
22.36119,5.86E-05
22.36171,8.11E-05
22.36223,9.68E-05
22.36275,0.000104234
22.36327,0.000105913
22.36379,0.000103899
22.36431,0.000101045
22.36483,9.65E-05
22.36535,9.05E-05
22.36587,8.36E-05
22.36638,7.74E-05
22.3669,7.13E-05
22.36742,6.26E-05
22.36794,5.05E-05
22.36846,3.99E-05
22.36898,3.14E-05
22.3695,2.20E-05
22.37002,7.05E-06
22.37054,-1.28E-05
22.37106,-3.61E-05
22.37158,-5.93E-05
22.3721,-7.77E-05
22.37262,-9.21E-05
22.37313,-0.000102892
22.37365,-0.000110948
22.37417,-0.000119677
22.37469,-0.000127733
22.37521,-0.00013193
22.37573,-0.000133776
22.37625,-0.000136965
22.37677,-0.000140993
22.37729,-0.000143847
22.37781,-0.000147204
22.37833,-0.000154589
22.37885,-0.000165332
22.37937,-0.00017641
22.37988,-0.000185809
22.3804,-0.000193195
22.38092,-0.000198901
22.38144,-0.00020293
22.38196,-0.000205615
22.38248,-0.000205615
22.383,-0.000201587
22.38352,-0.000197726
22.38404,-0.000196216
22.38456,-0.00019588
22.38508,-0.000195377
22.3856,-0.000195712
22.38612,-0.000195712
22.38663,-0.000189502
22.38715,-0.000175738
22.38767,-0.000157778
22.38819,-0.000137301
22.38871,-0.000112291
22.38923,-8.06E-05
22.38975,-4.31E-05
22.39027,-3.69E-06
22.39079,3.37E-05
22.39131,7.70E-05
22.39183,0.000130419
22.39235,0.000187823
22.39287,0.000235157
22.39338,0.000261677
22.3939,0.00026302
22.39442,0.000245899
22.39494,0.0002177
22.39546,0.000187152
22.39598,0.000158282
22.3965,0.000136126
22.39702,0.000128405
22.39754,0.000136126
22.39806,0.000146868
22.39858,0.000139483
22.3991,0.00010457
22.39962,4.72E-05
22.40014,-1.16E-05
22.40065,-4.41E-05
22.40117,-3.54E-05
22.40169,1.64E-05
22.40221,0.000106249
22.40273,0.000215686
22.40325,0.000322103
22.40377,0.000417273
22.40429,0.000493645
22.40481,0.000553567
22.40533,0.000592676
22.40585,0.000596704
22.40637,0.000563806
22.40689,0.000497337
22.4074,0.00040737
22.40792,0.0003122
22.40844,0.000230121
22.40896,0.000169696
22.40948,0.000131426
22.41,0.000114641
22.41052,0.000111955
22.41104,0.000119005
22.41156,0.000129748
22.41208,0.00013814
22.4126,0.000141161
22.41312,0.000136629
22.41364,0.000126558
22.41415,0.000111955
22.41467,9.35E-05
22.41519,7.42E-05
22.41571,6.08E-05
22.41623,6.40E-05
22.41675,9.03E-05
22.41727,0.00013579
22.41779,0.000187823
22.41831,0.000237171
22.41883,0.000263691
22.41935,0.00025362
22.41987,0.000214344
22.42039,0.00016231
22.4209,0.000105745
22.42142,4.28E-05
22.42194,-2.50E-05
22.42246,-9.15E-05
22.42298,-0.000148379
22.4235,-0.000194537
22.42402,-0.000230121
22.42454,-0.000246067
22.42506,-0.00023415
22.42558,-0.000199405
22.4261,-0.000156603
22.42661,-0.000125551
22.42714,-0.00012018
22.42765,-0.000139315
22.42817,-0.000169024
22.42869,-0.000195544
22.42921,-0.000211994
22.42973,-0.000221561
22.43025,-0.000228107
22.43077,-0.000232136
22.43129,-0.000233478
22.43181,-0.00023331
22.43233,-0.000234821
22.43285,-0.000236667
22.43336,-0.000236332
22.43389,-0.000232471
22.4344,-0.000227771
22.43492,-0.000222904
22.43544,-0.0002177
22.43596,-0.000213336
22.43648,-0.000207126
22.437,-0.000195377
22.43752,-0.000181109
22.43804,-0.000167849
22.43856,-0.000155932
22.43908,-0.000146197
22.4396,-0.000137469
22.44011,-0.000129412
22.44064,-0.000122026
22.44115,-0.00011313
22.44167,-0.00010222
22.44219,-8.86E-05
22.44271,-7.20E-05
22.44323,-5.35E-05
22.44375,-3.41E-05
22.44427,-1.43E-05
22.44479,4.20E-06
22.44531,2.00E-05
22.44583,3.07E-05
22.44635,3.68E-05
22.44687,4.20E-05
22.44739,4.68E-05
22.4479,4.82E-05
22.44842,4.60E-05
22.44894,4.13E-05
22.44946,3.31E-05
22.44998,2.40E-05
22.4505,1.91E-05
22.45102,1.91E-05
22.45154,2.32E-05
22.45206,3.34E-05
22.45258,4.88E-05
22.4531,6.70E-05
22.45362,8.22E-05
22.45413,9.45E-05
22.45465,0.000101213
22.45517,9.62E-05
22.45569,8.29E-05
22.45621,7.17E-05
22.45673,6.93E-05
22.45725,8.31E-05
22.45777,0.000114641
22.45829,0.000154757
22.45881,0.000190341
22.45933,0.000212833
22.45985,0.00022005
22.46037,0.000215351
22.46088,0.000202594
22.4614,0.000187152
22.46192,0.000171374
22.46244,0.000154589
22.46296,0.000134447
22.46348,0.000114641
22.464,0.00010222
22.46452,9.85E-05
22.46504,0.000106416
22.46556,0.00012253
22.46608,0.000137636
22.4666,0.00014435
22.46712,0.00013579
22.46763,0.000111284
22.46815,8.04E-05
22.46867,5.15E-05
22.46919,2.84E-05
22.46971,1.02E-05
22.47023,-6.55E-06
22.47075,-2.45E-05
22.47127,-3.86E-05
22.47179,-4.53E-05
22.47231,-4.65E-05
22.47283,-4.35E-05
22.47335,-3.78E-05
22.47387,-3.07E-05
22.47438,-2.52E-05
22.47491,-2.33E-05
22.47542,-2.10E-05
22.47594,-1.56E-05
22.47646,-7.55E-06
22.47698,5.04E-07
22.4775,6.71E-06
22.47802,1.01E-05
22.47854,1.24E-05
22.47906,1.48E-05
22.47958,1.59E-05
22.4801,1.59E-05
22.48062,1.64E-05
22.48113,1.90E-05
22.48165,2.23E-05
22.48217,2.52E-05
22.48269,2.77E-05
22.48321,3.00E-05
22.48373,3.16E-05
22.48425,3.41E-05
22.48477,3.88E-05
22.48529,4.18E-05
22.48581,4.35E-05
22.48633,4.55E-05
22.48685,4.75E-05
22.48737,4.88E-05
22.48788,4.95E-05
22.4884,4.87E-05
22.48892,4.80E-05
22.48944,4.99E-05
22.48996,5.25E-05
22.49048,5.56E-05
22.491,5.87E-05
22.49152,6.08E-05
22.49204,6.26E-05
22.49256,6.41E-05
22.49308,6.56E-05
22.4936,6.60E-05
22.49412,6.36E-05
22.49463,5.79E-05
22.49515,5.07E-05
22.49567,4.28E-05
22.49619,3.41E-05
22.49671,2.45E-05
22.49723,1.19E-05
22.49775,-3.69E-06
22.49827,-1.46E-05
22.49879,-1.44E-05
22.49931,-6.21E-06
22.49983,2.18E-06
22.50035,6.21E-06
22.50087,8.90E-06
22.50138,8.56E-06
22.5019,2.52E-06
22.50242,-6.21E-06
22.50294,-1.26E-05
22.50346,-1.53E-05
22.50398,-1.29E-05
22.5045,-6.21E-06
22.50502,8.39E-07
22.50554,5.37E-06
22.50606,6.55E-06
22.50658,4.36E-06
22.5071,1.85E-06
22.50762,-8.39E-07
22.50813,-4.20E-06
22.50865,-7.89E-06
22.50917,-1.64E-05
22.50969,-2.85E-05
22.51021,-3.68E-05
22.51073,-3.98E-05
22.51125,-4.06E-05
22.51177,-4.13E-05
22.51229,-4.10E-05
22.51281,-4.18E-05
22.51333,-4.58E-05
22.51385,-5.25E-05
22.51437,-5.86E-05
22.51488,-6.03E-05
22.5154,-5.84E-05
22.51592,-5.42E-05
22.51644,-4.75E-05
22.51696,-3.66E-05
22.51748,-1.86E-05
22.518,9.23E-06
22.51852,5.05E-05
22.51904,0.000108095
22.51956,0.000175067
22.52008,0.000242374
22.5206,0.00029894
22.52112,0.000334524
22.52164,0.00034493
22.52215,0.000331334
22.52267,0.000300618
22.52319,0.000258991
22.52371,0.000210651
22.52423,0.000157443
22.52475,0.000107256
22.52527,6.36E-05
22.52579,2.72E-05
22.52631,-2.85E-06
22.52683,-2.57E-05
22.52735,-4.28E-05
22.52787,-5.42E-05
22.52839,-5.52E-05
22.5289,-4.99E-05
22.52942,-4.68E-05
22.52994,-5.05E-05
22.53046,-5.94E-05
22.53098,-6.53E-05
22.5315,-6.29E-05
22.53202,-5.49E-05
22.53254,-4.58E-05
22.53306,-3.84E-05
22.53358,-3.47E-05
22.5341,-3.51E-05
22.53462,-3.96E-05
22.53514,-4.33E-05
22.53565,-3.94E-05
22.53617,-3.14E-05
22.53669,-2.58E-05
22.53721,-2.17E-05
22.53773,-1.76E-05
22.53825,-1.46E-05
22.53877,-1.19E-05
22.53929,-1.07E-05
22.53981,-9.23E-06
22.54033,-7.05E-06
22.54085,-1.19E-05
22.54137,-3.41E-05
22.54189,-8.11E-05
22.5424,-0.00014754
22.54292,-0.000207462
22.54344,-0.000230121
22.54396,-0.000198566
22.54448,-0.000115648
22.545,1.68E-07
22.54552,0.000120684
22.54604,0.000214679
22.54656,0.000257649
22.54708,0.000249592
22.5476,0.000206958
22.54811,0.000164996
22.54864,0.000149889
22.54915,0.000167346
22.54967,0.000206119
22.55019,0.000246235
22.55071,0.000268391
22.55123,0.000268391
22.55175,0.000255467
22.55227,0.000246571
22.55279,0.000243214
22.55331,0.000234485
22.55383,0.000210651
22.55435,0.000172885
22.55486,0.00013193
22.55539,9.45E-05
22.5559,6.11E-05
22.55642,2.94E-05
22.55694,0
22.55746,-2.32E-05
22.55798,-3.49E-05
22.5585,-3.69E-05
22.55902,-3.56E-05
22.55954,-3.05E-05
22.56006,-2.33E-05
22.56058,-2.25E-05
22.5611,-3.42E-05
22.56161,-5.69E-05
22.56214,-8.07E-05
22.56265,-9.90E-05
22.56317,-0.000114305
22.56369,-0.00013344
22.56421,-0.000148882
22.56473,-0.0001467
22.56525,-0.000131594
22.56577,-0.00011548
22.56629,-0.000107759
22.56681,-0.000105745
22.56733,-0.000105409
22.56785,-0.000104234
22.56837,-9.87E-05
22.56889,-8.26E-05
22.5694,-5.71E-05
22.56992,-2.94E-05
22.57044,-7.05E-06
22.57096,5.87E-06
22.57148,1.46E-05
22.572,2.30E-05
22.57252,2.82E-05
22.57304,3.31E-05
22.57356,4.15E-05
22.57408,5.12E-05
22.5746,5.62E-05
22.57512,5.54E-05
22.57563,5.17E-05
22.57615,4.72E-05
22.57667,4.41E-05
22.57719,4.53E-05
22.57771,5.12E-05
22.57823,5.76E-05
22.57875,6.40E-05
22.57927,7.17E-05
22.57979,7.62E-05
22.58031,7.25E-05
22.58083,6.03E-05
22.58135,4.35E-05
22.58187,2.87E-05
22.58238,1.98E-05
22.5829,1.41E-05
22.58342,7.39E-06
22.58394,-6.71E-07
22.58446,-4.03E-06
22.58498,-5.04E-07
22.5855,4.20E-06
22.58602,4.53E-06
22.58654,8.39E-07
22.58706,-2.85E-06
22.58758,-7.55E-06
22.5881,-1.43E-05
22.58862,-2.48E-05
22.58913,-3.42E-05
22.58965,-3.79E-05
22.59017,-3.58E-05
22.59069,-3.27E-05
22.59121,-3.17E-05
22.59173,-3.00E-05
22.59225,-2.35E-05
22.59277,-1.33E-05
22.59329,-5.71E-06
22.59381,-5.20E-06
22.59433,-1.26E-05
22.59485,-2.47E-05
22.59537,-3.64E-05
22.59588,-4.40E-05
22.59641,-4.46E-05
22.59692,-4.01E-05
22.59744,-3.37E-05
22.59796,-2.87E-05
22.59848,-2.58E-05
22.599,-2.17E-05
22.59952,-1.51E-05
22.60004,-6.71E-06
22.60056,2.35E-06
22.60108,1.41E-05
22.6016,2.90E-05
22.60212,4.15E-05
22.60263,5.17E-05
22.60315,6.83E-05
22.60367,9.68E-05
22.60419,0.000140658
22.60471,0.000193866
22.60523,0.000243885
22.60575,0.000278966
22.60627,0.000286854
22.60679,0.000264698
22.60731,0.000220722
22.60783,0.00016231
22.60835,9.75E-05
22.60887,4.80E-05
22.60938,3.42E-05
22.6099,5.34E-05
22.61042,7.80E-05
22.61094,8.04E-05
22.61146,5.47E-05
22.61198,2.08E-05
22.6125,2.01E-06
22.61302,4.36E-06
22.61354,2.27E-05
22.61406,4.82E-05
22.61458,6.87E-05
22.6151,7.42E-05
22.61562,6.26E-05
22.61613,4.15E-05
22.61665,2.00E-05
22.61717,-8.39E-07
22.61769,-2.17E-05
22.61821,-3.93E-05
22.61873,-4.82E-05
22.61925,-4.67E-05
22.61977,-3.79E-05
22.62029,-2.75E-05
22.62081,-1.81E-05
22.62133,-1.19E-05
22.62185,-9.90E-06
22.62237,-1.06E-05
22.62288,-1.43E-05
22.6234,-1.93E-05
22.62392,-2.64E-05
22.62444,-3.14E-05
22.62496,-3.04E-05
22.62548,-1.98E-05
22.626,-6.21E-06
22.62652,-2.35E-06
22.62704,-7.72E-06
22.62756,-1.02E-05
22.62808,-3.52E-06
22.6286,3.36E-06
22.62912,5.04E-07
22.62963,-6.55E-06
22.63015,-5.71E-06
22.63067,3.02E-06
22.63119,1.29E-05
22.63171,2.27E-05
22.63223,3.14E-05
22.63275,3.96E-05
22.63327,4.75E-05
22.63379,4.82E-05
22.63431,3.34E-05
22.63483,2.52E-06
22.63535,-2.84E-05
22.63587,-4.13E-05
22.63638,-3.16E-05
22.6369,-1.09E-05
22.63742,5.54E-06
22.63794,1.93E-05
22.63846,3.27E-05
22.63898,3.47E-05
22.6395,1.86E-05
22.64002,-6.38E-06
22.64054,-3.04E-05
22.64106,-5.30E-05
22.64158,-7.17E-05
22.6421,-7.91E-05
22.64262,-7.15E-05
22.64314,-5.20E-05
22.64365,-2.99E-05
22.64417,-1.48E-05
22.64469,-6.88E-06
22.64521,-2.18E-06
22.64573,-2.18E-06
22.64625,6.71E-07
22.64677,1.02E-05
22.64729,1.68E-05
22.64781,1.36E-05
22.64833,7.89E-06
22.64885,5.04E-06
22.64937,7.39E-06
22.64989,1.51E-05
22.6504,2.52E-05
22.65092,3.14E-05
22.65144,2.94E-05
22.65196,2.77E-05
22.65248,3.79E-05
22.653,5.35E-05
22.65352,6.41E-05
22.65404,7.10E-05
22.65456,8.14E-05
22.65508,9.42E-05
22.6556,0.00010457
22.65612,0.000109438
22.65664,0.000112963
22.65715,0.000117998
22.65767,0.000125048
22.65819,0.000131426
22.65871,0.000130419
22.65923,0.000119844
22.65975,0.000107256
22.66027,0.000101045
22.66079,9.92E-05
22.66131,9.82E-05
22.66183,9.84E-05
22.66235,0.00010222
22.66287,0.00010927
22.66339,0.000113634
22.6639,0.00011397
22.66442,0.000109438
22.66494,9.90E-05
22.66546,8.58E-05
22.66598,8.09E-05
22.6665,8.69E-05
22.66702,9.42E-05
22.66754,9.79E-05
22.66806,9.92E-05
22.66858,9.65E-05
22.6691,8.88E-05
22.66961,7.50E-05
22.67014,6.09E-05
22.67065,5.02E-05
22.67117,4.53E-05
22.67169,4.45E-05
22.67221,4.28E-05
22.67273,3.21E-05
22.67325,8.90E-06
22.67377,-2.10E-05
22.67429,-4.93E-05
22.67481,-7.03E-05
22.67533,-8.07E-05
22.67585,-8.39E-05
22.67636,-8.44E-05
22.67689,-8.11E-05
22.6774,-7.13E-05
22.67792,-5.94E-05
22.67844,-5.27E-05
22.67896,-5.59E-05
22.67948,-6.36E-05
22.68,-6.70E-05
22.68052,-6.03E-05
22.68104,-4.65E-05
22.68156,-3.54E-05
22.68208,-3.31E-05
22.6826,-3.59E-05
22.68312,-3.94E-05
22.68364,-3.91E-05
22.68415,-3.54E-05
22.68467,-2.90E-05
22.68519,-1.98E-05
22.68571,-7.72E-06
22.68623,2.85E-06
22.68675,9.90E-06
22.68727,1.19E-05
22.68779,1.04E-05
22.68831,9.23E-06
22.68883,8.22E-06
22.68935,4.53E-06
22.68987,-1.01E-06
22.69039,-6.38E-06
22.6909,-8.39E-06
22.69142,-6.04E-06
22.69194,1.68E-07
22.69246,6.55E-06
22.69298,1.11E-05
22.6935,1.29E-05
22.69402,8.90E-06
22.69454,1.68E-07
22.69506,-9.90E-06
22.69558,-1.70E-05
22.6961,-1.90E-05
22.69662,-1.80E-05
22.69713,-1.49E-05
22.69765,-8.06E-06
22.69817,2.18E-06
22.69869,1.17E-05
22.69921,1.90E-05
22.69973,2.13E-05
22.70025,2.35E-05
22.70077,3.11E-05
22.70129,4.05E-05
22.70181,4.46E-05
22.70233,4.33E-05
22.70285,3.98E-05
22.70337,3.68E-05
22.70388,3.81E-05
22.7044,4.73E-05
22.70492,6.29E-05
22.70544,7.77E-05
22.70596,8.58E-05
22.70648,8.98E-05
22.707,9.08E-05
22.70752,8.49E-05
22.70804,7.37E-05
22.70856,6.50E-05
22.70908,6.21E-05
22.7096,6.29E-05
22.71012,6.06E-05
22.71063,5.40E-05
22.71115,5.09E-05
22.71167,4.92E-05
22.71219,4.57E-05
22.71271,4.11E-05
22.71323,3.93E-05
22.71375,4.31E-05
22.71427,5.14E-05
22.71479,5.77E-05
22.71531,5.94E-05
22.71583,6.08E-05
22.71635,6.23E-05
22.71687,5.81E-05
22.71738,4.80E-05
22.71791,3.51E-05
22.71842,2.22E-05
22.71894,1.12E-05
22.71946,1.85E-06
22.71998,-5.20E-06
22.7205,-7.22E-06
22.72102,-7.72E-06
22.72154,-8.56E-06
22.72206,-1.09E-05
22.72258,-1.83E-05
22.7231,-2.70E-05
22.72362,-3.39E-05
22.72413,-4.18E-05
22.72465,-4.45E-05
22.72517,-3.61E-05
22.72569,-2.06E-05
22.72621,-4.20E-06
22.72673,1.02E-05
22.72725,1.71E-05
22.72777,2.06E-05
22.72829,2.47E-05
22.72881,2.74E-05
22.72933,2.45E-05
22.72985,1.43E-05
22.73037,8.39E-07
22.73088,-1.19E-05
22.7314,-2.30E-05
22.73192,-3.00E-05
22.73244,-2.75E-05
22.73296,-1.24E-05
22.73348,1.01E-05
22.734,2.87E-05
22.73452,3.78E-05
22.73504,4.18E-05
22.73556,4.48E-05
22.73608,4.82E-05
22.7366,5.02E-05
22.73712,4.99E-05
22.73763,4.82E-05
22.73815,4.48E-05
22.73867,3.74E-05
22.73919,2.67E-05
22.73971,1.71E-05
22.74023,1.51E-05
22.74075,2.03E-05
22.74127,2.70E-05
22.74179,2.94E-05
22.74231,2.47E-05
22.74283,1.90E-05
22.74335,1.85E-05
22.74387,2.47E-05
22.74438,3.41E-05
22.7449,3.24E-05
22.74542,3.11E-05
22.74594,4.05E-05
22.74646,4.92E-05
22.74698,5.17E-05
22.7475,5.24E-05
22.74802,5.09E-05
22.74854,4.85E-05
22.74906,5.12E-05
22.74958,5.69E-05
22.7501,6.40E-05
22.75062,7.17E-05
22.75113,7.82E-05
22.75165,8.27E-05
22.75217,8.54E-05
22.75269,8.51E-05
22.75321,8.04E-05
22.75373,7.27E-05
22.75425,6.50E-05
22.75477,5.98E-05
22.75529,5.40E-05
22.75581,4.45E-05
22.75633,3.21E-05
22.75685,2.18E-05
22.75737,1.90E-05
22.75788,2.43E-05
22.7584,3.47E-05
22.75892,4.48E-05
22.75944,5.29E-05
22.75996,5.82E-05
22.76048,6.29E-05
22.761,6.78E-05
22.76152,7.32E-05
22.76204,7.87E-05
22.76256,8.24E-05
22.76308,8.44E-05
22.7636,8.56E-05
22.76412,8.68E-05
22.76464,9.21E-05
22.76515,0.000101885
22.76567,0.000109606
22.76619,0.000108934
22.76671,0.000100542
22.76723,8.69E-05
22.76775,7.17E-05
22.76827,5.62E-05
22.76879,3.89E-05
22.76931,2.17E-05
22.76983,8.56E-06
22.77035,2.35E-06
22.77087,4.36E-06
22.77139,8.56E-06
22.7719,8.56E-06
22.77242,4.87E-06
22.77294,2.52E-06
22.77346,1.34E-06
22.77398,-4.87E-06
22.7745,-2.10E-05
22.77502,-4.53E-05
22.77554,-7.47E-05
22.77606,-0.000104402
22.77658,-0.000132769
22.7771,-0.000158282
22.77762,-0.000181277
22.77814,-0.000203769
22.77865,-0.000223911
22.77917,-0.000239185
22.77969,-0.00025127
22.78021,-0.00026067
22.78073,-0.000270069
22.78125,-0.000280812
22.78177,-0.000293065
22.78229,-0.000306325
22.78281,-0.00031841
22.78333,-0.000330495
22.78385,-0.000344762
22.78436,-0.000361547
22.78489,-0.000383368
22.7854,-0.000413245
22.78592,-0.000444801
22.78644,-0.000466621
22.78696,-0.000474174
22.78748,-0.00046595
22.788,-0.000430198
22.78852,-0.000350973
22.78904,-0.000218708
22.78956,-3.98E-05
22.79008,0.000161975
22.7906,0.000350973
22.79111,0.00050103
22.79164,0.000605432
22.79215,0.000673243
22.79267,0.000713527
22.79319,0.000722927
22.79371,0.000696071
22.79423,0.000641016
22.79475,0.000573205
22.79527,0.000502037
22.79579,0.000424155
22.79631,0.000335531
22.79683,0.000244556
22.79735,0.000175235
22.79786,0.000146197
22.79839,0.000154254
22.7989,0.000183459
22.79942,0.000218036
22.79994,0.00024506
22.80046,0.00025597
22.80098,0.000251942
22.8015,0.000241367
22.80202,0.000227436
22.80254,0.000209979
22.80306,0.000191684
22.80358,0.000176242
22.8041,0.000160632
22.80462,0.00014049
22.80514,0.000122026
22.80565,0.000119005
22.80617,0.000140154
22.80669,0.000177752
22.80721,0.000211658
22.80773,0.000223407
22.80825,0.000209979
22.80877,0.000180438
22.80929,0.000149554
22.80981,0.000127398
22.81033,0.000112291
22.81085,9.48E-05
22.81137,7.35E-05
22.81189,5.44E-05
22.8124,3.73E-05
22.81292,1.51E-05
22.81344,-1.02E-05
22.81396,-1.31E-05
22.81448,3.96E-05
22.815,0.000143343
22.81552,0.000260334
22.81604,0.000352987
22.81656,0.000406699
22.81708,0.000422477
22.8176,0.000403845
22.81812,0.000350637
22.81863,0.000269062
22.81915,0.000174899
22.81967,8.27E-05
22.82019,1.51E-06
22.82071,-6.56E-05
22.82123,-0.000120516
22.82175,-0.000170199
22.82227,-0.000217868
22.82279,-0.000259831
22.82331,-0.000294575
22.82383,-0.000323446
22.82435,-0.00034258
22.82487,-0.000346273
22.82538,-0.000337041
22.8259,-0.00032311
22.82642,-0.000316228
22.82694,-0.000323446
22.82746,-0.000344762
22.82798,-0.000372961
22.8285,-0.000403845
22.82902,-0.000432883
22.82954,-0.000442954
22.83006,-0.000414588
22.83058,-0.000338888
22.8311,-0.000230457
22.83162,-0.000125887
22.83213,-5.71E-05
22.83265,-3.04E-05
22.83317,-3.21E-05
22.83369,-4.20E-05
22.83421,-4.92E-05
22.83473,-5.35E-05
22.83525,-5.56E-05
22.83577,-5.79E-05
22.83629,-6.18E-05
22.83681,-6.73E-05
22.83733,-7.28E-05
22.83785,-7.59E-05
22.83837,-7.54E-05
22.83888,-7.39E-05
22.83941,-7.40E-05
22.83992,-7.62E-05
22.84044,-7.64E-05
22.84096,-7.37E-05
22.84148,-6.95E-05
22.842,-6.48E-05
22.84252,-6.11E-05
22.84304,-5.52E-05
22.84356,-4.65E-05
22.84408,-3.74E-05
22.8446,-2.82E-05
22.84512,-1.96E-05
22.84563,-1.09E-05
22.84615,-1.01E-06
22.84667,9.06E-06
22.84719,1.66E-05
22.84771,2.30E-05
22.84823,2.89E-05
22.84875,3.61E-05
22.84927,4.41E-05
22.84979,4.88E-05
22.85031,4.95E-05
22.85083,4.93E-05
22.85135,4.93E-05
22.85187,4.92E-05
22.85238,4.97E-05
22.8529,5.17E-05
22.85342,5.52E-05
22.85394,5.96E-05
22.85446,6.29E-05
22.85498,6.70E-05
22.8555,7.28E-05
22.85602,7.84E-05
22.85654,8.24E-05
22.85706,8.61E-05
22.85758,9.08E-05
22.8581,9.68E-05
22.85862,0.000101213
22.85913,0.000104906
22.85965,0.000108934
22.86017,0.000113298
22.86069,0.00011632
22.86121,0.000117998
22.86173,0.000119844
22.86225,0.000122026
22.86277,0.000123705
22.86329,0.000124376
22.86381,0.000124712
22.86433,0.00012488
22.86485,0.000125551
22.86537,0.000127733
22.86588,0.000130419
22.8664,0.00013344
22.86692,0.000135287
22.86744,0.00013579
22.86796,0.000135454
22.86848,0.000135454
22.869,0.000137636
22.86952,0.000141161
22.87004,0.000144854
22.87056,0.000145693
22.87108,0.000142168
22.8716,0.000132601
22.87212,0.00011783
22.87263,0.000101717
22.87315,8.85E-05
22.87367,7.97E-05
22.87419,7.44E-05
22.87471,7.05E-05
22.87523,6.46E-05
22.87575,5.52E-05
22.87627,4.55E-05
22.87679,3.84E-05
22.87731,3.46E-05
22.87783,3.00E-05
22.87835,2.05E-05
22.87887,9.23E-06
22.87938,1.51E-06
22.8799,-1.51E-06
22.88042,-1.51E-06
22.88094,-5.04E-07
22.88146,-1.17E-06
22.88198,-2.85E-06
22.8825,-2.18E-06
22.88302,1.68E-07
22.88354,3.52E-06
22.88406,6.21E-06
22.88458,7.89E-06
22.8851,8.90E-06
22.88562,9.23E-06
22.88614,9.23E-06
22.88665,1.06E-05
22.88717,1.46E-05
22.88769,1.86E-05
22.88821,1.90E-05
22.88873,1.64E-05
22.88925,1.28E-05
22.88977,8.73E-06
22.89029,2.85E-06
22.89081,-3.52E-06
22.89133,-5.54E-06
22.89185,-1.85E-06
22.89237,5.87E-06
22.89289,1.56E-05
22.8934,2.25E-05
22.89392,2.45E-05
22.89444,2.32E-05
22.89496,1.86E-05
22.89548,1.33E-05
22.896,7.72E-06
22.89652,0
22.89704,-1.02E-05
22.89756,-2.03E-05
22.89808,-2.87E-05
22.8986,-3.39E-05
22.89912,-3.56E-05
22.89964,-3.34E-05
22.90015,-2.97E-05
22.90067,-2.77E-05
22.90119,-2.77E-05
22.90171,-2.70E-05
22.90223,-2.87E-05
22.90275,-2.92E-05
22.90327,-2.30E-05
22.90379,-1.11E-05
22.90431,-8.39E-07
22.90483,5.20E-06
22.90535,6.88E-06
22.90586,8.56E-06
22.90639,1.36E-05
22.9069,1.93E-05
22.90742,2.06E-05
22.90794,1.85E-05
22.90846,1.48E-05
22.90898,9.90E-06
22.9095,4.20E-06
22.91002,-4.20E-06
22.91054,-1.06E-05
22.91106,-1.16E-05
22.91158,-6.55E-06
22.9121,-2.18E-06
22.91261,-5.54E-06
22.91314,-1.26E-05
22.91365,-1.81E-05
22.91417,-2.27E-05
22.91469,-2.84E-05
22.91521,-3.54E-05
22.91573,-4.18E-05
22.91625,-4.38E-05
22.91677,-4.31E-05
22.91729,-4.31E-05
22.91781,-4.46E-05
22.91833,-4.41E-05
22.91885,-3.71E-05
22.91936,-1.95E-05
22.91989,7.89E-06
22.9204,3.93E-05
22.92092,6.76E-05
22.92144,9.25E-05
22.92196,0.000116152
22.92248,0.000139147
22.923,0.000160967
22.92352,0.000180102
22.92404,0.000195544
22.92456,0.000203769
22.92508,0.000198566
22.9256,0.00017557
22.92612,0.000139315
22.92664,0.000101717
22.92715,7.37E-05
22.92767,5.35E-05
22.92819,3.54E-05
22.92871,2.23E-05
22.92923,1.73E-05
22.92975,1.93E-05
22.93027,2.84E-05
22.93079,4.55E-05
22.93131,6.93E-05
22.93183,9.45E-05
22.93235,0.000115984
22.93287,0.000132433
22.93338,0.000139483
22.9339,0.000134112
22.93442,0.000115816
22.93494,8.78E-05
22.93546,5.96E-05
22.93598,4.01E-05
22.9365,3.05E-05
22.93702,2.67E-05
22.93754,2.50E-05
22.93806,2.43E-05
22.93858,2.40E-05
22.9391,2.37E-05
22.93962,2.17E-05
22.94013,1.90E-05
22.94065,1.48E-05
22.94117,9.57E-06
22.94169,4.53E-06
22.94221,1.85E-06
22.94273,5.04E-06
22.94325,1.80E-05
22.94377,3.71E-05
22.94429,5.30E-05
22.94481,6.01E-05
22.94533,5.66E-05
22.94585,4.21E-05
22.94637,2.40E-05
22.94688,1.33E-05
22.9474,9.90E-06
22.94792,8.90E-06
22.94844,8.73E-06
22.94896,9.40E-06
22.94948,1.24E-05
22.95,1.43E-05
22.95052,6.55E-06
22.95104,-8.90E-06
22.95156,-2.25E-05
22.95208,-2.85E-05
22.9526,-3.12E-05
22.95312,-3.94E-05
22.95363,-5.12E-05
22.95415,-5.86E-05
22.95467,-6.03E-05
22.95519,-6.09E-05
22.95571,-6.24E-05
22.95623,-6.24E-05
22.95675,-6.09E-05
22.95727,-5.76E-05
22.95779,-5.44E-05
22.95831,-5.15E-05
22.95883,-4.99E-05
22.95935,-5.12E-05
22.95987,-4.92E-05
22.96038,-3.98E-05
22.9609,-2.80E-05
22.96142,-2.11E-05
22.96194,-1.98E-05
22.96246,-2.03E-05
22.96298,-1.46E-05
22.9635,-1.68E-06
22.96402,1.02E-05
22.96454,1.56E-05
22.96506,1.56E-05
22.96558,1.76E-05
22.9661,2.25E-05
22.96662,2.74E-05
22.96713,3.27E-05
22.96765,3.94E-05
22.96817,4.53E-05
22.96869,4.77E-05
22.96921,4.38E-05
22.96973,3.64E-05
22.97025,3.59E-05
22.97077,4.65E-05
22.97129,6.11E-05
22.97181,6.97E-05
22.97233,7.00E-05
22.97285,6.50E-05
22.97337,5.46E-05
22.97388,4.20E-05
22.9744,3.27E-05
22.97492,2.94E-05
22.97544,3.27E-05
22.97596,3.71E-05
22.97648,3.73E-05
22.977,3.34E-05
22.97752,2.97E-05
22.97804,3.21E-05
22.97856,3.71E-05
22.97908,4.05E-05
22.9796,4.23E-05
22.98012,4.23E-05
22.98063,3.98E-05
22.98115,3.88E-05
22.98167,4.25E-05
22.98219,4.63E-05
22.98271,4.67E-05
22.98323,4.46E-05
22.98375,4.31E-05
22.98427,4.06E-05
22.98479,3.76E-05
22.98531,3.83E-05
22.98583,4.08E-05
22.98635,3.99E-05
22.98687,3.59E-05
22.98738,3.27E-05
22.9879,3.42E-05
22.98842,3.89E-05
22.98894,4.60E-05
22.98946,5.09E-05
22.98998,4.82E-05
22.9905,4.01E-05
22.99102,3.12E-05
22.99154,2.33E-05
22.99206,1.49E-05
22.99258,9.90E-06
22.9931,1.36E-05
22.99362,2.38E-05
22.99413,3.37E-05
22.99465,3.54E-05
22.99517,2.48E-05
22.99569,1.51E-06
22.99621,-2.92E-05
22.99673,-6.16E-05
22.99725,-8.85E-05
22.99777,-0.000100542
22.99829,-9.47E-05
22.99881,-7.75E-05
22.99933,-5.93E-05
22.99985,-4.16E-05
23.00037,-2.23E-05
23.00089,-3.86E-06
23.0014,7.55E-06
23.00192,1.31E-05
23.00244,1.51E-05
23.00296,1.36E-05
23.00348,1.31E-05
23.004,1.49E-05
23.00452,1.38E-05
23.00504,5.87E-06
23.00556,-9.74E-06
23.00608,-2.84E-05
23.0066,-3.78E-05
23.00712,-3.36E-05
23.00764,-2.13E-05
23.00815,-4.36E-06
23.00867,1.29E-05
23.00919,2.47E-05
23.00971,3.54E-05
23.01023,5.35E-05
23.01075,7.89E-05
23.01127,0.000101885
23.01179,0.000108934
23.01231,0.000100374
23.01283,9.13E-05
23.01335,9.20E-05
23.01387,9.79E-05
23.01439,0.000101717
23.0149,0.000102892
23.01542,0.000102892
23.01594,0.000101213
23.01646,9.70E-05
23.01698,9.21E-05
23.0175,8.54E-05
23.01802,7.10E-05
23.01854,5.77E-05
23.01906,6.14E-05
23.01958,8.02E-05
23.0201,9.92E-05
23.02062,0.000103227
23.02114,8.58E-05
23.02165,5.62E-05
23.02217,2.94E-05
23.02269,1.12E-05
23.02321,-2.85E-06
23.02373,-2.08E-05
23.02425,-4.10E-05
23.02477,-5.46E-05
23.02529,-5.84E-05
23.02581,-5.77E-05
23.02633,-5.81E-05
23.02685,-5.89E-05
23.02736,-5.91E-05
23.02789,-6.06E-05
23.0284,-6.36E-05
23.02892,-6.60E-05
23.02944,-6.68E-05
23.02996,-5.76E-05
23.03048,-3.42E-05
23.031,-5.20E-06
23.03152,1.48E-05
23.03204,1.98E-05
23.03256,1.56E-05
23.03308,1.24E-05
23.0336,1.33E-05
23.03411,1.59E-05
23.03464,2.23E-05
23.03515,3.29E-05
23.03567,3.88E-05
23.03619,3.36E-05
23.03671,2.23E-05
23.03723,9.57E-06
23.03775,-2.35E-06
23.03827,-6.38E-06
23.03879,3.86E-06
23.03931,2.05E-05
23.03983,3.14E-05
23.04035,3.27E-05
23.04086,3.24E-05
23.04139,3.37E-05
23.0419,3.14E-05
23.04242,2.55E-05
23.04294,2.11E-05
23.04346,2.40E-05
23.04398,3.41E-05
23.0445,4.55E-05
23.04502,5.15E-05
23.04554,5.27E-05
23.04606,5.40E-05
23.04658,5.66E-05
23.0471,5.56E-05
23.04762,5.46E-05
23.04814,6.13E-05
23.04865,7.27E-05
23.04917,8.09E-05
23.04969,8.61E-05
23.05021,9.20E-05
23.05073,9.40E-05
23.05125,8.98E-05
23.05177,8.41E-05
23.05229,8.16E-05
23.05281,8.17E-05
23.05333,8.26E-05
23.05385,7.94E-05
23.05437,7.10E-05
23.05488,5.82E-05
23.0554,4.10E-05
23.05592,2.64E-05
23.05644,2.25E-05
23.05696,2.70E-05
23.05748,3.11E-05
23.058,2.70E-05
23.05852,1.44E-05
23.05904,8.39E-07
23.05956,-1.01E-05
23.06008,-2.18E-05
23.0606,-3.47E-05
23.06112,-4.11E-05
23.06163,-3.54E-05
23.06215,-2.10E-05
23.06267,-7.89E-06
23.06319,-2.35E-06
23.06371,-1.68E-06
23.06423,-4.53E-06
23.06475,-9.57E-06
23.06527,-1.53E-05
23.06579,-2.17E-05
23.06631,-3.04E-05
23.06683,-4.08E-05
23.06735,-4.95E-05
23.06787,-5.69E-05
23.06838,-6.36E-05
23.0689,-6.92E-05
23.06942,-7.03E-05
23.06994,-6.48E-05
23.07046,-4.92E-05
23.07098,-2.67E-05
23.0715,-4.87E-06
23.07202,1.06E-05
23.07254,2.01E-05
23.07306,2.50E-05
23.07358,2.90E-05
23.0741,3.61E-05
23.07462,4.38E-05
23.07513,5.05E-05
23.07565,5.72E-05
23.07617,6.80E-05
23.07669,7.97E-05
23.07721,8.71E-05
23.07773,8.96E-05
23.07825,9.15E-05
23.07877,9.45E-05
23.07929,9.65E-05
23.07981,9.65E-05
23.08033,9.65E-05
23.08085,9.74E-05
23.08137,0.000102556
23.08188,0.000113634
23.0824,0.000125216
23.08292,0.000132265
23.08344,0.000135958
23.08396,0.000135958
23.08448,0.000134783
23.085,0.000133944
23.08552,0.000129748
23.08604,0.000120348
23.08656,0.000109102
23.08708,9.80E-05
23.0876,8.66E-05
23.08812,7.50E-05
23.08863,6.43E-05
23.08915,5.49E-05
23.08967,4.40E-05
23.09019,2.85E-05
23.09071,9.57E-06
23.09123,-6.21E-06
23.09175,-1.39E-05
23.09227,-1.70E-05
23.09279,-2.11E-05
23.09331,-2.77E-05
23.09383,-3.61E-05
23.09435,-4.78E-05
23.09487,-6.09E-05
23.09538,-6.87E-05
23.0959,-6.58E-05
23.09642,-5.09E-05
23.09694,-3.17E-05
23.09746,-1.85E-05
23.09798,-1.66E-05
23.0985,-2.23E-05
23.09902,-3.11E-05
23.09954,-3.61E-05
23.10006,-3.59E-05
23.10058,-3.54E-05
23.1011,-3.99E-05
23.10162,-4.85E-05
23.10213,-5.62E-05
23.10265,-6.03E-05
23.10317,-6.16E-05
23.10369,-6.21E-05
23.10421,-6.16E-05
23.10473,-5.76E-05
23.10525,-4.90E-05
23.10577,-3.58E-05
23.10629,-1.90E-05
23.10681,-2.35E-06
23.10733,1.06E-05
23.10785,1.59E-05
23.10837,1.31E-05
23.10888,3.69E-06
23.1094,-6.88E-06
23.10992,-1.39E-05
23.11044,-1.59E-05
23.11096,-1.43E-05
23.11148,-9.06E-06
23.112,-1.51E-06
23.11252,4.53E-06
23.11304,7.89E-06
23.11356,1.19E-05
23.11408,1.56E-05
23.1146,1.49E-05
23.11512,7.72E-06
23.11563,8.39E-07
23.11615,-2.18E-06
23.11667,-4.53E-06
23.11719,-1.09E-05
23.11771,-1.88E-05
23.11823,-2.40E-05
23.11875,-2.43E-05
23.11927,-2.38E-05
23.11979,-2.25E-05
23.12031,-1.44E-05
23.12083,5.71E-06
23.12135,3.54E-05
23.12187,7.07E-05
23.12239,0.000105577
23.1229,0.000135454
23.12342,0.000154086
23.12394,0.00016231
23.12446,0.000162982
23.12498,0.000157443
23.1255,0.000146868
23.12602,0.000134112
23.12654,0.000121355
23.12706,0.000109941
23.12758,0.000100542
23.1281,9.33E-05
23.12862,8.36E-05
23.12914,7.03E-05
23.12965,5.76E-05
23.13017,4.52E-05
23.13069,3.31E-05
23.13121,2.70E-05
23.13173,3.11E-05
23.13225,4.33E-05
23.13277,5.57E-05
23.13329,5.86E-05
23.13381,5.61E-05
23.13433,5.59E-05
23.13485,5.96E-05
23.13537,6.97E-05
23.13589,8.44E-05
23.1364,9.57E-05
23.13692,9.77E-05
23.13744,9.20E-05
23.13796,8.38E-05
23.13848,7.70E-05
23.139,7.40E-05
23.13952,7.27E-05
23.14004,7.20E-05
23.14056,7.07E-05
23.14108,6.70E-05
23.1416,6.11E-05
23.14212,5.09E-05
23.14264,3.84E-05
23.14315,2.43E-05
23.14367,1.14E-05
23.14419,3.86E-06
23.14471,4.87E-06
23.14523,1.96E-05
23.14575,5.46E-05
23.14627,0.000107256
23.14679,0.000162982
23.14731,0.000203265
23.14783,0.000214008
23.14835,0.00019353
23.14886,0.000153918
23.14939,0.000111116
23.1499,7.37E-05
23.15042,4.25E-05
23.15094,1.76E-05
23.15146,-2.01E-06
23.15198,-1.90E-05
23.1525,-3.47E-05
23.15302,-5.14E-05
23.15354,-6.80E-05
23.15406,-8.41E-05
23.15458,-9.63E-05
23.1551,-0.00010457
23.15561,-0.000112963
23.15614,-0.000123034
23.15665,-0.000131594
23.15717,-0.000138644
23.15769,-0.00014435
23.15821,-0.000147707
23.15873,-0.000150729
23.15925,-0.000155093
23.15977,-0.000159457
23.16029,-0.000161303
23.16081,-0.000158785
23.16133,-0.000153079
23.16185,-0.000148547
23.16236,-0.000145525
23.16289,-0.000135454
23.1634,-0.000119844
23.16392,-0.000106416
23.16444,-9.52E-05
23.16496,-8.16E-05
23.16548,-6.76E-05
23.166,-6.21E-05
23.16652,-6.70E-05
23.16704,-7.57E-05
23.16756,-8.26E-05
23.16808,-8.54E-05
23.1686,-8.73E-05
23.16912,-8.91E-05
23.16964,-9.06E-05
23.17015,-9.16E-05
23.17067,-9.21E-05
23.17119,-9.18E-05
23.17171,-9.11E-05
23.17223,-9.28E-05
23.17275,-9.55E-05
23.17327,-9.75E-05
23.17379,-9.94E-05
23.17431,-0.000102556
23.17483,-0.000108934
23.17535,-0.000118166
23.17587,-0.000124712
23.17638,-0.000121355
23.1769,-0.00010692
23.17742,-8.24E-05
23.17794,-5.00E-05
23.17846,-1.11E-05
23.17898,3.07E-05
23.1795,7.28E-05
23.18002,0.000107256
23.18054,0.000126055
23.18106,0.000124208
23.18158,0.000107759
23.1821,8.85E-05
23.18262,7.10E-05
23.18313,5.72E-05
23.18365,5.07E-05
23.18417,5.46E-05
23.18469,7.03E-05
23.18521,9.92E-05
23.18573,0.000152743
23.18625,0.000235157
23.18677,0.000323278
23.18729,0.000394614
23.18781,0.000442115
23.18833,0.000465782
23.18885,0.000468467
23.18937,0.000454032
23.18988,0.000424155
23.1904,0.000384207
23.19092,0.000345266
23.19144,0.000317907
23.19196,0.000301289
23.19248,0.000290715
23.193,0.000284337
23.19352,0.000281819
23.19404,0.000286687
23.19456,0.000301122
23.19508,0.000324788
23.1956,0.00035198
23.19612,0.000372961
23.19663,0.000382528
23.19715,0.000379843
23.19767,0.000364904
23.19819,0.000338048
23.19871,0.000301793
23.19923,0.00025832
23.19975,0.000212833
23.20027,0.000170199
23.20079,0.000128069
23.20131,8.24E-05
23.20183,3.16E-05
23.20235,-2.27E-05
23.20287,-7.70E-05
23.20338,-0.000127565
23.2039,-0.000170703
23.20442,-0.000206119
23.20494,-0.000231632
23.20546,-0.000250935
23.20598,-0.000264027
23.2065,-0.000272084
23.20702,-0.000279301
23.20754,-0.000286687
23.20806,-0.000293233
23.20858,-0.000296422
23.2091,-0.00029575
23.20962,-0.000292058
23.21013,-0.00028484
23.21065,-0.000275776
23.21117,-0.000265873
23.21169,-0.000254963
23.21221,-0.00024271
23.21273,-0.000230121
23.21325,-0.000216358
23.21377,-0.000199573
23.21429,-0.000180102
23.21481,-0.000156771
23.21533,-0.000127733
23.21585,-9.21E-05
23.21637,-5.12E-05
23.21688,-8.56E-06
23.2174,3.16E-05
23.21792,6.55E-05
23.21844,8.98E-05
23.21896,0.000103395
23.21948,0.000106752
23.22,0.00010457
23.22052,0.000100206
23.22104,9.57E-05
23.22156,8.91E-05
23.22208,8.09E-05
23.2226,7.17E-05
23.22312,6.03E-05
23.22363,4.68E-05
23.22415,3.29E-05
23.22467,1.96E-05
23.22519,7.89E-06
23.22571,0
23.22623,-2.85E-06
23.22675,-5.04E-07
23.22727,6.55E-06
23.22779,1.11E-05
23.22831,9.90E-06
23.22883,3.86E-06
23.22935,-5.04E-06
23.22987,-1.36E-05
23.23038,-2.22E-05
23.2309,-3.19E-05
23.23142,-4.31E-05
23.23194,-5.39E-05
23.23246,-6.41E-05
23.23298,-7.28E-05
23.2335,-7.92E-05
23.23402,-8.63E-05
23.23454,-9.27E-05
23.23506,-9.72E-05
23.23558,-9.85E-05
23.2361,-9.55E-05
23.23662,-8.85E-05
23.23713,-7.64E-05
23.23765,-6.08E-05
23.23817,-4.28E-05
23.23869,-2.22E-05
23.23921,-1.17E-06
23.23973,1.90E-05
23.24025,3.79E-05
23.24077,5.77E-05
23.24129,7.84E-05
23.24181,9.82E-05
23.24233,0.000115312
23.24285,0.000129244
23.24337,0.000141161
23.24389,0.000152407
23.2444,0.000161639
23.24492,0.000168521
23.24544,0.00017171
23.24596,0.000172549
23.24648,0.000172213
23.247,0.000172885
23.24752,0.000171038
23.24804,0.000166674
23.24856,0.000162142
23.24908,0.000156771
23.2496,0.000150225
23.25012,0.000141161
23.25064,0.000131426
23.25115,0.00012253
23.25167,0.000114305
23.25219,0.00010457
23.25271,9.52E-05
23.25323,8.68E-05
23.25375,7.84E-05
23.25427,7.03E-05
23.25479,6.23E-05
23.25531,5.42E-05
23.25583,4.58E-05
23.25635,3.89E-05
23.25687,3.37E-05
23.25739,2.89E-05
23.2579,2.30E-05
23.25842,1.71E-05
23.25894,1.12E-05
23.25946,4.03E-06
23.25998,-1.68E-06
23.2605,-5.04E-06
23.26102,-8.22E-06
23.26154,-1.02E-05
23.26206,-1.28E-05
23.26258,-1.66E-05
23.2631,-2.05E-05
23.26362,-2.23E-05
23.26414,-2.30E-05
23.26465,-2.30E-05
23.26517,-2.30E-05
23.26569,-2.28E-05
23.26621,-2.25E-05
23.26673,-2.23E-05
23.26725,-2.20E-05
23.26777,-1.91E-05
23.26829,-1.56E-05
23.26881,-1.31E-05
23.26933,-1.09E-05
23.26985,-9.23E-06
23.27036,-8.06E-06
23.27089,-5.87E-06
23.2714,-3.36E-06
23.27192,-2.18E-06
23.27244,-1.85E-06
23.27296,-1.17E-06
23.27348,5.04E-07
23.274,2.85E-06
23.27452,4.20E-06
23.27504,4.87E-06
23.27556,5.87E-06
23.27608,8.22E-06
23.2766,1.09E-05
23.27711,1.28E-05
23.27764,1.41E-05
23.27815,1.59E-05
23.27867,1.80E-05
23.27919,1.91E-05
23.27971,1.91E-05
23.28023,1.73E-05
23.28075,1.59E-05
23.28127,1.58E-05
23.28179,1.59E-05
23.28231,1.63E-05
23.28283,1.70E-05
23.28335,1.66E-05
23.28386,1.66E-05
23.28439,1.93E-05
23.2849,2.20E-05
23.28542,2.27E-05
23.28594,2.13E-05
23.28646,2.00E-05
23.28698,2.01E-05
23.2875,2.11E-05
23.28802,2.10E-05
23.28854,1.91E-05
23.28906,1.70E-05
23.28958,1.38E-05
23.2901,1.11E-05
23.29062,7.55E-06
23.29114,2.52E-06
23.29165,-1.17E-06
23.29217,-5.04E-07
23.29269,9.06E-06
23.29321,2.65E-05
23.29373,4.70E-05
23.29425,6.55E-05
23.29477,7.64E-05
23.29529,7.70E-05
23.29581,6.83E-05
23.29633,5.59E-05
23.29685,4.28E-05
23.29737,3.26E-05
23.29788,2.47E-05
23.2984,1.90E-05
23.29892,1.58E-05
23.29944,1.33E-05
23.29996,1.16E-05
23.30048,1.17E-05
23.301,1.26E-05
23.30152,1.24E-05
23.30204,1.19E-05
23.30256,1.09E-05
23.30308,1.04E-05
23.3036,1.16E-05
23.30412,1.33E-05
23.30463,1.63E-05
23.30515,2.20E-05
23.30567,2.89E-05
23.30619,3.31E-05
23.30671,3.46E-05
23.30723,3.41E-05
23.30775,3.36E-05
23.30827,3.29E-05
23.30879,3.11E-05
23.30931,2.75E-05
23.30983,2.60E-05
23.31035,2.99E-05
23.31087,3.99E-05
23.31138,5.29E-05
23.3119,6.38E-05
23.31242,6.80E-05
23.31294,6.56E-05
23.31346,5.99E-05
23.31398,5.46E-05
23.3145,5.02E-05
23.31502,4.62E-05
23.31554,4.31E-05
23.31606,4.08E-05
23.31658,3.88E-05
23.3171,3.73E-05
23.31762,3.59E-05
23.31813,3.41E-05
23.31866,3.17E-05
23.31917,2.90E-05
23.31969,2.67E-05
23.32021,2.53E-05
23.32073,2.43E-05
23.32125,2.37E-05
23.32177,2.50E-05
23.32229,2.75E-05
23.32281,3.04E-05
23.32333,3.19E-05
23.32385,3.00E-05
23.32437,2.84E-05
23.32488,2.87E-05
23.3254,2.94E-05
23.32592,2.94E-05
23.32644,2.84E-05
23.32696,2.67E-05
23.32748,2.53E-05
23.328,2.67E-05
23.32852,2.74E-05
23.32904,2.70E-05
23.32956,2.64E-05
23.33008,2.43E-05
23.3306,2.17E-05
23.33112,1.83E-05
23.33163,1.54E-05
23.33215,1.39E-05
23.33267,1.33E-05
23.33319,1.33E-05
23.33371,1.31E-05
23.33423,1.17E-05
23.33475,9.74E-06
23.33527,8.39E-06
23.33579,8.22E-06
23.33631,8.73E-06
23.33683,9.57E-06
23.33735,9.23E-06
23.33787,7.89E-06
23.33838,6.04E-06
23.3389,4.20E-06
23.33942,2.52E-06
23.33994,1.85E-06
23.34046,0
23.34098,-1.51E-06
23.3415,-1.01E-06
23.34202,0
23.34254,1.68E-06
23.34306,3.19E-06
23.34358,3.86E-06
23.3441,3.19E-06
23.34462,1.85E-06
23.34513,1.17E-06
23.34565,1.85E-06
23.34617,3.86E-06
23.34669,6.21E-06
23.34721,7.89E-06
23.34773,7.89E-06
23.34825,7.72E-06
23.34877,9.74E-06
23.34929,1.24E-05
23.34981,1.28E-05
23.35033,1.26E-05
23.35085,1.26E-05
23.35137,1.38E-05
23.35188,1.59E-05
23.3524,1.73E-05
23.35292,1.93E-05
23.35344,2.11E-05
23.35396,2.03E-05
23.35448,1.86E-05
23.355,1.96E-05
23.35552,2.27E-05
23.35604,2.53E-05
23.35656,2.57E-05
23.35708,2.37E-05
23.3576,2.23E-05
23.35812,2.17E-05
23.35863,2.22E-05
23.35915,2.37E-05
23.35967,2.52E-05
23.36019,2.53E-05
23.36071,2.40E-05
23.36123,2.23E-05
23.36175,2.05E-05
23.36227,2.06E-05
23.36279,2.13E-05
23.36331,2.20E-05
23.36383,2.30E-05
23.36435,2.52E-05
23.36487,3.02E-05
23.36539,3.74E-05
23.3659,4.48E-05
23.36642,4.95E-05
23.36694,5.09E-05
23.36746,4.75E-05
23.36798,4.28E-05
23.3685,3.81E-05
23.36902,3.41E-05
23.36954,3.17E-05
23.37006,2.99E-05
23.37058,2.79E-05
23.3711,2.58E-05
23.37162,2.30E-05
23.37214,2.13E-05
23.37265,2.23E-05
23.37317,2.40E-05
23.37369,2.53E-05
23.37421,2.64E-05
23.37473,2.60E-05
23.37525,2.57E-05
23.37577,2.57E-05
23.37629,2.50E-05
23.37681,2.42E-05
23.37733,2.43E-05
23.37785,2.57E-05
23.37837,2.60E-05
23.37889,2.58E-05
23.3794,2.53E-05
23.37992,2.58E-05
23.38044,2.60E-05
23.38096,2.50E-05
23.38148,2.37E-05
23.382,2.45E-05
23.38252,2.50E-05
23.38304,2.47E-05
23.38356,2.47E-05
23.38408,2.40E-05
23.3846,2.35E-05
23.38512,2.18E-05
23.38564,2.05E-05
23.38615,1.96E-05
23.38667,2.05E-05
23.38719,2.23E-05
23.38771,2.27E-05
23.38823,2.22E-05
23.38875,2.23E-05
23.38927,2.27E-05
23.38979,2.27E-05
23.39031,2.08E-05
23.39083,1.86E-05
23.39135,1.70E-05
23.39186,1.66E-05
23.39239,1.73E-05
23.3929,1.93E-05
23.39342,2.06E-05
23.39394,2.10E-05
23.39446,2.03E-05
23.39498,1.98E-05
23.3955,2.05E-05
23.39602,2.10E-05
23.39654,2.18E-05
23.39706,2.25E-05
23.39758,2.20E-05
23.3981,2.17E-05
23.39861,2.23E-05
23.39914,2.32E-05
23.39965,2.32E-05
23.40017,2.30E-05
23.40069,2.33E-05
23.40121,2.47E-05
23.40173,2.40E-05
23.40225,2.37E-05
23.40277,2.50E-05
23.40329,2.67E-05
23.40381,2.67E-05
23.40433,2.58E-05
23.40485,2.47E-05
23.40536,2.48E-05
23.40589,2.70E-05
23.4064,2.87E-05
23.40692,2.74E-05
23.40744,2.53E-05
23.40796,2.47E-05
23.40848,2.50E-05
23.409,2.47E-05
23.40952,2.38E-05
23.41004,2.35E-05
23.41056,2.28E-05
23.41108,2.13E-05
23.4116,2.01E-05
23.41212,1.93E-05
23.41264,1.91E-05
23.41315,2.05E-05
23.41367,2.22E-05
23.41419,2.33E-05
23.41471,2.35E-05
23.41523,2.28E-05
23.41575,2.23E-05
23.41627,2.27E-05
23.41679,2.27E-05
23.41731,2.20E-05
23.41783,2.13E-05
23.41835,2.06E-05
23.41887,2.13E-05
23.41938,2.30E-05
23.4199,2.40E-05
23.42042,2.65E-05
23.42094,2.84E-05
23.42146,2.72E-05
23.42198,2.62E-05
23.4225,2.74E-05
23.42302,2.84E-05
23.42354,3.04E-05
23.42406,3.21E-05
23.42458,3.16E-05
23.4251,3.05E-05
23.42562,2.94E-05
23.42613,2.97E-05
23.42665,3.14E-05
23.42717,3.24E-05
23.42769,3.11E-05
23.42821,2.80E-05
23.42873,2.50E-05
23.42925,2.43E-05
23.42977,2.62E-05
23.43029,2.70E-05
23.43081,2.60E-05
23.43133,2.42E-05
23.43185,2.27E-05
23.43237,2.10E-05
23.43288,2.11E-05
23.4334,2.25E-05
23.43392,2.27E-05
23.43444,2.22E-05
23.43496,2.23E-05
23.43548,2.40E-05
23.436,2.53E-05
23.43652,2.52E-05
23.43704,2.47E-05
23.43756,2.52E-05
23.43808,2.43E-05
23.4386,2.37E-05
23.43912,2.37E-05
23.43963,2.37E-05
23.44016,2.37E-05
23.44067,2.52E-05
23.44119,2.67E-05
23.44171,2.82E-05
23.44223,2.74E-05
23.44275,2.53E-05
23.44327,2.43E-05
23.44379,2.40E-05
23.44431,2.35E-05
23.44483,2.33E-05
23.44535,2.30E-05
23.44587,2.38E-05
23.44638,2.53E-05
23.4469,2.58E-05
23.44742,2.50E-05
23.44794,2.32E-05
23.44846,2.23E-05
23.44898,2.40E-05
23.4495,2.67E-05
23.45002,2.72E-05
23.45054,2.62E-05
23.45106,2.58E-05
23.45158,2.60E-05
23.4521,2.53E-05
23.45262,2.43E-05
23.45313,2.33E-05
23.45365,2.30E-05
23.45417,2.25E-05
23.45469,2.13E-05
23.45521,2.03E-05
23.45573,1.90E-05
23.45625,1.88E-05
23.45677,2.05E-05
23.45729,2.33E-05
23.45781,2.52E-05
23.45833,2.53E-05
23.45885,2.50E-05
23.45937,2.47E-05
23.45988,2.53E-05
23.4604,2.65E-05
23.46092,2.67E-05
23.46144,2.57E-05
23.46196,2.40E-05
23.46248,2.32E-05
23.463,2.43E-05
23.46352,2.48E-05
23.46404,2.50E-05
23.46456,2.60E-05
23.46508,2.80E-05
23.4656,2.84E-05
23.46612,2.60E-05
23.46663,2.40E-05
23.46715,2.45E-05
23.46767,2.53E-05
23.46819,2.55E-05
23.46871,2.43E-05
23.46923,2.11E-05
23.46975,1.85E-05
23.47027,1.80E-05
23.47079,1.85E-05
23.47131,1.86E-05
23.47183,2.01E-05
23.47235,2.00E-05
23.47287,1.81E-05
23.47338,1.71E-05
23.4739,1.64E-05
23.47442,1.59E-05
23.47494,1.59E-05
23.47546,1.59E-05
23.47598,1.63E-05
23.4765,1.70E-05
23.47702,1.66E-05
23.47754,1.64E-05
23.47806,1.68E-05
23.47858,1.63E-05
23.4791,1.54E-05
23.47962,1.36E-05
23.48013,1.17E-05
23.48065,1.09E-05
23.48117,1.02E-05
23.48169,9.23E-06
23.48221,8.56E-06
23.48273,7.72E-06
23.48325,9.23E-06
23.48377,1.44E-05
23.48429,2.13E-05
23.48481,2.84E-05
23.48533,3.21E-05
23.48585,3.07E-05
23.48637,2.75E-05
23.48689,2.50E-05
23.4874,2.20E-05
23.48792,1.88E-05
23.48844,1.68E-05
23.48896,1.58E-05
23.48948,1.56E-05
23.49,1.66E-05
23.49052,1.66E-05
23.49104,1.66E-05
23.49156,1.78E-05
23.49208,2.00E-05
23.4926,2.03E-05
23.49312,1.86E-05
23.49364,1.73E-05
23.49415,1.81E-05
23.49467,1.95E-05
23.49519,2.01E-05
23.49571,2.01E-05
23.49623,1.93E-05
23.49675,1.93E-05
23.49727,2.13E-05
23.49779,2.25E-05
23.49831,2.20E-05
23.49883,2.00E-05
23.49935,1.86E-05
23.49987,1.95E-05
23.50039,2.13E-05
23.5009,2.27E-05
23.50142,2.30E-05
23.50194,2.38E-05
23.50246,2.43E-05
23.50298,2.47E-05
23.5035,2.57E-05
23.50402,2.57E-05
23.50454,2.50E-05
23.50506,2.47E-05
23.50558,2.48E-05
23.5061,2.52E-05
23.50662,2.48E-05
23.50714,2.52E-05
23.50765,2.67E-05
23.50817,2.87E-05
23.50869,2.90E-05
23.50921,2.77E-05
23.50973,2.52E-05
23.51025,2.50E-05
23.51077,2.70E-05
23.51129,2.94E-05
23.51181,3.29E-05
23.51233,3.51E-05
23.51285,3.58E-05
23.51336,3.61E-05
23.51389,3.51E-05
23.5144,3.29E-05
23.51492,3.12E-05
23.51544,3.09E-05
23.51596,3.07E-05
23.51648,3.19E-05
23.517,3.34E-05
23.51752,3.47E-05
23.51804,3.54E-05
23.51856,3.49E-05
23.51908,3.36E-05
23.5196,3.16E-05
23.52011,2.85E-05
23.52064,2.62E-05
23.52115,2.52E-05
23.52167,2.32E-05
23.52219,2.10E-05
23.52271,2.00E-05
23.52323,1.85E-05
23.52375,1.81E-05
23.52427,1.91E-05
23.52479,2.01E-05
23.52531,2.00E-05
23.52583,1.96E-05
23.52635,1.90E-05
23.52687,1.85E-05
23.52739,1.85E-05
23.5279,1.80E-05
23.52842,1.76E-05
23.52894,1.73E-05
23.52946,1.64E-05
23.52998,1.66E-05
23.5305,1.76E-05
23.53102,1.78E-05
23.53154,1.75E-05
23.53206,1.76E-05
23.53258,1.70E-05
23.5331,1.58E-05
23.53362,1.53E-05
23.53414,1.59E-05
23.53465,1.64E-05
23.53517,1.59E-05
23.53569,1.59E-05
23.53621,1.70E-05
23.53673,1.66E-05
23.53725,1.63E-05
23.53777,1.68E-05
23.53829,1.86E-05
23.53881,2.01E-05
23.53933,2.01E-05
23.53985,1.90E-05
23.54037,1.86E-05
23.54088,1.98E-05
23.5414,2.01E-05
23.54192,2.05E-05
23.54244,2.00E-05
23.54296,1.90E-05
23.54348,1.86E-05
23.544,2.03E-05
23.54452,2.18E-05
23.54504,2.27E-05
23.54556,2.37E-05
23.54608,2.43E-05
23.5466,2.43E-05
23.54712,2.33E-05
23.54763,2.23E-05
23.54815,2.18E-05
23.54867,2.23E-05
23.54919,2.37E-05
23.54971,2.43E-05
23.55023,2.37E-05
23.55075,2.28E-05
23.55127,2.38E-05
23.55179,2.52E-05
23.55231,2.50E-05
23.55283,2.47E-05
23.55335,2.45E-05
23.55387,2.47E-05
23.55438,2.53E-05
23.5549,2.53E-05
23.55542,2.62E-05
23.55594,2.77E-05
23.55646,2.94E-05
23.55698,3.11E-05
23.5575,3.21E-05
23.55802,3.17E-05
23.55854,3.04E-05
23.55906,2.94E-05
23.55958,2.97E-05
23.5601,2.94E-05
23.56062,2.80E-05
23.56113,2.77E-05
23.56166,2.87E-05
23.56217,2.94E-05
23.56269,2.87E-05
23.56321,2.72E-05
23.56373,2.53E-05
23.56425,2.40E-05
23.56477,2.43E-05
23.56529,2.50E-05
23.56581,2.60E-05
23.56633,2.67E-05
23.56685,2.75E-05
23.56737,2.90E-05
23.56788,3.00E-05
23.5684,3.00E-05
23.56892,2.94E-05
23.56944,2.82E-05
23.56996,2.53E-05
23.57048,2.35E-05
23.571,2.35E-05
23.57152,2.40E-05
23.57204,2.58E-05
23.57256,2.85E-05
23.57308,2.94E-05
23.5736,2.94E-05
23.57412,2.90E-05
23.57463,2.85E-05
23.57515,2.99E-05
23.57567,3.17E-05
23.57619,3.34E-05
23.57671,3.41E-05
23.57723,3.24E-05
23.57775,3.21E-05
23.57827,3.37E-05
23.57879,3.51E-05
23.57931,3.47E-05
23.57983,3.39E-05
23.58035,3.26E-05
23.58087,3.07E-05
23.58138,2.99E-05
23.5819,2.97E-05
23.58242,2.94E-05
23.58294,2.82E-05
23.58346,2.60E-05
23.58398,2.48E-05
23.5845,2.64E-05
23.58502,2.75E-05
23.58554,2.64E-05
23.58606,2.52E-05
23.58658,2.40E-05
23.5871,2.27E-05
23.58762,2.08E-05
23.58813,2.00E-05
23.58865,1.98E-05
23.58917,1.93E-05
23.58969,1.86E-05
23.59021,1.76E-05
23.59073,1.59E-05
23.59125,1.44E-05
23.59177,1.29E-05
23.59229,1.04E-05
23.59281,7.89E-06
23.59333,4.87E-06
23.59385,1.34E-06
23.59437,-1.85E-06
23.59488,-4.20E-06
23.5954,-7.72E-06
23.59592,-1.12E-05
23.59644,-1.43E-05
23.59696,-1.49E-05
23.59748,-1.39E-05
23.598,-1.12E-05
23.59852,-9.57E-06
23.59904,-6.04E-06
23.59956,-1.68E-07
23.60008,1.01E-05
23.6006,2.43E-05
23.60112,4.28E-05
23.60163,6.55E-05
23.60215,8.98E-05
23.60267,0.000110277
23.60319,0.000120684
23.60371,0.000119341
23.60423,0.000106249
23.60475,8.91E-05
23.60527,7.18E-05
23.60579,5.62E-05
23.60631,4.13E-05
23.60683,2.79E-05
23.60735,1.59E-05
23.60787,8.22E-06
23.60839,3.86E-06
23.6089,1.68E-06
23.60942,1.68E-07
23.60994,-1.51E-06
23.61046,-3.52E-06
23.61098,-4.53E-06
23.6115,-3.02E-06
23.61202,-1.01E-06
23.61254,5.04E-07
23.61306,1.17E-06
23.61358,1.51E-06
23.6141,2.35E-06
23.61462,2.35E-06
23.61514,2.35E-06
23.61565,4.53E-06
23.61617,8.22E-06
23.61669,1.06E-05
23.61721,1.26E-05
23.61773,1.26E-05
23.61825,1.19E-05
23.61877,1.21E-05
23.61929,1.34E-05
23.61981,1.43E-05
23.62033,1.39E-05
23.62085,1.33E-05
23.62137,1.33E-05
23.62189,1.53E-05
23.6224,1.76E-05
23.62292,1.93E-05
23.62344,1.96E-05
23.62396,1.81E-05
23.62448,1.70E-05
23.625,1.83E-05
23.62552,1.90E-05
23.62604,1.90E-05
23.62656,1.90E-05
23.62708,1.96E-05
23.6276,2.06E-05
23.62812,2.06E-05
23.62864,1.96E-05
23.62915,2.03E-05
23.62967,2.13E-05
23.63019,2.23E-05
23.63071,2.22E-05
23.63123,2.10E-05
23.63175,2.00E-05
23.63227,1.96E-05
23.63279,2.06E-05
23.63331,2.10E-05
23.63383,2.05E-05
23.63435,1.96E-05
23.63486,1.95E-05
23.63539,2.00E-05
23.6359,2.05E-05
23.63642,2.03E-05
23.63694,1.93E-05
23.63746,1.75E-05
23.63798,1.70E-05
23.6385,1.93E-05
23.63902,2.20E-05
23.63954,2.25E-05
23.64006,2.11E-05
23.64058,2.03E-05
23.6411,2.11E-05
23.64161,2.13E-05
23.64214,2.18E-05
23.64265,2.35E-05
23.64317,2.57E-05
23.64369,2.65E-05
23.64421,2.67E-05
23.64473,2.62E-05
23.64525,2.53E-05
23.64577,2.52E-05
23.64629,2.53E-05
23.64681,2.53E-05
23.64733,2.50E-05
23.64785,2.47E-05
23.64837,2.62E-05
23.64889,2.80E-05
23.6494,2.77E-05
23.64992,2.57E-05
23.65044,2.40E-05
23.65096,2.27E-05
23.65148,2.33E-05
23.652,2.60E-05
23.65252,2.82E-05
23.65304,2.89E-05
23.65356,2.90E-05
23.65408,2.90E-05
23.6546,2.89E-05
23.65512,2.79E-05
23.65564,2.70E-05
23.65615,2.74E-05
23.65667,2.74E-05
23.65719,2.69E-05
23.65771,2.65E-05
23.65823,2.57E-05
23.65875,2.57E-05
23.65927,2.60E-05
23.65979,2.58E-05
23.66031,2.57E-05
23.66083,2.50E-05
23.66135,2.33E-05
23.66187,2.13E-05
23.66238,2.08E-05
23.6629,2.13E-05
23.66342,2.20E-05
23.66394,2.27E-05
23.66446,2.18E-05
23.66498,2.10E-05
23.6655,2.11E-05
23.66602,2.13E-05
23.66654,2.13E-05
23.66706,2.23E-05
23.66758,2.38E-05
23.6681,2.43E-05
23.66862,2.32E-05
23.66913,2.23E-05
23.66965,2.38E-05
23.67017,2.67E-05
23.67069,2.79E-05
23.67121,2.67E-05
23.67173,2.50E-05
23.67225,2.35E-05
23.67277,2.37E-05
23.67329,2.33E-05
23.67381,2.28E-05
23.67433,2.27E-05
23.67485,2.22E-05
23.67537,2.25E-05
23.67588,2.40E-05
23.6764,2.43E-05
23.67692,2.37E-05
23.67744,2.30E-05
23.67796,2.20E-05
23.67848,2.23E-05
23.679,2.43E-05
23.67952,2.53E-05
23.68004,2.50E-05
23.68056,2.47E-05
23.68108,2.47E-05
23.6816,2.47E-05
23.68212,2.48E-05
23.68263,2.67E-05
23.68316,3.12E-05
23.68367,3.26E-05
23.68419,2.99E-05
23.68471,2.64E-05
23.68523,2.45E-05
23.68575,2.43E-05
23.68627,2.62E-05
23.68679,2.87E-05
23.68731,2.90E-05
23.68783,2.75E-05
23.68835,2.55E-05
23.68887,2.50E-05
23.68938,2.52E-05
23.6899,2.53E-05
23.69042,2.50E-05
23.69094,2.43E-05
23.69146,2.40E-05
23.69198,2.37E-05
23.6925,2.38E-05
23.69302,2.40E-05
23.69354,2.47E-05
23.69406,2.60E-05
23.69458,2.75E-05
23.6951,2.94E-05
23.69562,3.00E-05
23.69613,2.94E-05
23.69665,2.89E-05
23.69717,2.82E-05
23.69769,2.87E-05
23.69821,2.97E-05
23.69873,2.89E-05
23.69925,2.74E-05
23.69977,2.74E-05
23.70029,2.82E-05
23.70081,2.87E-05
23.70133,2.90E-05
23.70185,2.87E-05
23.70237,2.79E-05
23.70288,2.70E-05
23.7034,2.55E-05
23.70392,2.33E-05
23.70444,1.96E-05
23.70496,1.59E-05
23.70548,1.46E-05
23.706,1.66E-05
23.70652,1.80E-05
23.70704,1.86E-05
23.70756,1.78E-05
23.70808,1.63E-05
23.7086,1.54E-05
23.70912,1.46E-05
23.70963,1.43E-05
23.71015,1.46E-05
23.71067,1.39E-05
23.71119,1.41E-05
23.71171,1.59E-05
23.71223,1.71E-05
23.71275,1.80E-05
23.71327,1.91E-05
23.71379,2.03E-05
23.71431,2.00E-05
23.71483,1.93E-05
23.71535,1.80E-05
23.71587,1.80E-05
23.71638,1.76E-05
23.7169,1.63E-05
23.71742,1.58E-05
23.71794,1.71E-05
23.71846,1.96E-05
23.71898,2.50E-05
23.7195,3.42E-05
23.72002,4.48E-05
23.72054,5.27E-05
23.72106,5.54E-05
23.72158,5.35E-05
23.7221,4.90E-05
23.72262,4.25E-05
23.72313,3.46E-05
23.72365,2.85E-05
23.72417,2.43E-05
23.72469,2.10E-05
23.72521,1.71E-05
23.72573,1.24E-05
23.72625,9.74E-06
23.72677,1.06E-05
23.72729,1.06E-05
23.72781,1.02E-05
23.72833,1.14E-05
23.72885,1.28E-05
23.72937,1.36E-05
23.72989,1.38E-05
23.7304,1.43E-05
23.73092,1.58E-05
23.73144,1.66E-05
23.73196,1.53E-05
23.73248,1.49E-05
23.733,1.73E-05
23.73352,1.96E-05
23.73404,2.11E-05
23.73456,2.30E-05
23.73508,2.50E-05
23.7356,2.57E-05
23.73612,2.50E-05
23.73664,2.37E-05
23.73715,2.25E-05
23.73767,2.20E-05
23.73819,2.13E-05
23.73871,1.93E-05
23.73923,1.59E-05
23.73975,1.36E-05
23.74027,1.36E-05
23.74079,1.36E-05
23.74131,1.28E-05
23.74183,1.12E-05
23.74235,8.90E-06
23.74287,6.55E-06
23.74339,5.20E-06
23.7439,3.52E-06
23.74442,1.17E-06
23.74494,-1.85E-06
23.74546,-6.88E-06
23.74598,-1.16E-05
23.7465,-1.23E-05
23.74702,-8.56E-06
23.74754,-6.71E-07
23.74806,1.16E-05
23.74858,2.74E-05
23.7491,4.52E-05
23.74961,6.08E-05
23.75014,7.03E-05
23.75065,7.28E-05
23.75117,6.98E-05
23.75169,6.26E-05
23.75221,5.46E-05
23.75273,4.85E-05
23.75325,4.58E-05
23.75377,4.58E-05
23.75429,4.62E-05
23.75481,4.55E-05
23.75533,4.31E-05
23.75585,3.78E-05
23.75636,3.21E-05
23.75689,2.80E-05
23.7574,2.52E-05
23.75792,2.20E-05
23.75844,2.01E-05
23.75896,1.86E-05
23.75948,1.73E-05
23.76,1.64E-05
23.76052,1.51E-05
23.76104,1.39E-05
23.76156,1.39E-05
23.76208,1.43E-05
23.7626,1.36E-05
23.76311,1.16E-05
23.76364,1.01E-05
23.76415,1.09E-05
23.76467,1.19E-05
23.76519,1.19E-05
23.76571,1.16E-05
23.76623,1.11E-05
23.76675,1.09E-05
23.76727,1.26E-05
23.76779,1.58E-05
23.76831,1.78E-05
23.76883,1.76E-05
23.76935,1.59E-05
23.76987,1.58E-05
23.77039,1.81E-05
23.7709,2.06E-05
23.77142,2.20E-05
23.77194,2.23E-05
23.77246,2.10E-05
23.77298,2.03E-05
23.7735,2.13E-05
23.77402,2.33E-05
23.77454,2.47E-05
23.77506,2.47E-05
23.77558,2.47E-05
23.7761,2.53E-05
23.77662,2.52E-05
23.77713,2.40E-05
23.77765,2.37E-05
23.77817,2.45E-05
23.77869,2.50E-05
23.77921,2.62E-05
23.77973,2.70E-05
23.78025,2.75E-05
23.78077,2.84E-05
23.78129,2.90E-05
23.78181,2.85E-05
23.78233,2.69E-05
23.78285,2.47E-05
23.78337,2.35E-05
23.78388,2.43E-05
23.7844,2.65E-05
23.78492,2.84E-05
23.78544,2.94E-05
23.78596,2.99E-05
23.78648,2.97E-05
23.787,2.99E-05
23.78752,2.94E-05
23.78804,2.94E-05
23.78856,2.84E-05
23.78908,2.74E-05
23.7896,2.67E-05
23.79012,2.65E-05
23.79063,2.60E-05
23.79115,2.64E-05
23.79167,2.64E-05
23.79219,2.67E-05
23.79271,2.84E-05
23.79323,2.90E-05
23.79375,2.77E-05
23.79427,2.67E-05
23.79479,2.64E-05
23.79531,2.52E-05
23.79583,2.40E-05
23.79635,2.23E-05
23.79687,2.10E-05
23.79738,2.13E-05
23.7979,2.22E-05
23.79842,2.13E-05
23.79894,2.05E-05
23.79946,1.96E-05
23.79998,2.00E-05
23.8005,2.13E-05
23.80102,2.13E-05
23.80154,2.13E-05
23.80206,2.17E-05
23.80258,2.13E-05
23.8031,2.05E-05
23.80362,1.96E-05
23.80413,1.98E-05
23.80466,2.03E-05
23.80517,2.06E-05
23.80569,2.10E-05
23.80621,2.05E-05
23.80673,1.83E-05
23.80725,1.73E-05
23.80777,1.90E-05
23.80829,2.06E-05
23.80881,2.11E-05
23.80933,2.03E-05
23.80985,1.93E-05
23.81037,1.88E-05
23.81088,1.90E-05
23.8114,1.86E-05
23.81192,1.86E-05
23.81244,1.88E-05
23.81296,1.85E-05
23.81348,1.83E-05
23.814,1.90E-05
23.81452,1.86E-05
23.81504,1.88E-05
23.81556,1.90E-05
23.81608,1.93E-05
23.8166,2.06E-05
23.81712,2.11E-05
23.81763,1.96E-05
23.81815,1.96E-05
23.81867,2.03E-05
23.81919,1.98E-05
23.81971,1.86E-05
23.82023,1.73E-05
23.82075,1.64E-05
23.82127,1.68E-05
23.82179,1.73E-05
23.82231,1.68E-05
23.82283,1.66E-05
23.82335,1.64E-05
23.82387,1.78E-05
23.82438,2.00E-05
23.8249,2.13E-05
23.82542,2.06E-05
23.82594,2.00E-05
23.82646,1.96E-05
23.82698,2.06E-05
23.8275,2.22E-05
23.82802,2.20E-05
23.82854,2.10E-05
23.82906,2.11E-05
23.82958,2.28E-05
23.8301,2.37E-05
23.83062,2.33E-05
23.83113,2.37E-05
23.83165,2.48E-05
23.83217,2.57E-05
23.83269,2.60E-05
23.83321,2.64E-05
23.83373,2.64E-05
23.83425,2.60E-05
23.83477,2.80E-05
23.83529,3.21E-05
23.83581,3.78E-05
23.83633,4.40E-05
23.83685,4.82E-05
23.83737,4.92E-05
23.83788,4.60E-05
23.8384,4.05E-05
23.83892,3.44E-05
23.83944,2.90E-05
23.83996,2.42E-05
23.84048,2.06E-05
23.841,1.98E-05
23.84152,1.93E-05
23.84204,1.91E-05
23.84256,1.93E-05
23.84308,1.93E-05
23.8436,1.96E-05
23.84412,1.83E-05
23.84464,1.76E-05
23.84515,1.83E-05
23.84567,2.00E-05
23.84619,2.10E-05
23.84671,1.98E-05
23.84723,1.73E-05
23.84775,1.56E-05
23.84827,1.53E-05
23.84879,1.51E-05
23.84931,1.43E-05
23.84983,1.31E-05
23.85035,1.29E-05
23.85087,1.59E-05
23.85139,2.27E-05
23.8519,3.12E-05
23.85242,4.08E-05
23.85294,5.12E-05
23.85346,5.99E-05
23.85398,6.50E-05
23.8545,6.70E-05
23.85502,6.66E-05
23.85554,6.40E-05
23.85606,5.93E-05
